signal_idx,peak_idx
0,77
0,370
0,662
1,302
1,586
2,226
2,511
3,151
3,435
4,75
4,369
4,604
5,244
5,602
6,242
6,546
7,186
7,477
8,117
8,403
8,680
9,43
9,320
9,622
10,262
10,570
11,210
11,506
12,146
12,444
13,84
13,380
13,666
14,306
14,593
15,233
15,518
16,158
16,454
17,94
17,406
18,46
18,343
18,626
19,266
19,551
20,191
20,470
21,110
21,393
21,685
22,325
22,619
23,259
23,557
24,197
24,501
25,141
25,431
26,71
26,350
26,638
27,278
27,562
28,202
28,511
29,151
29,454
30,94
30,391
30,680
31,320
31,620
32,260
32,546
33,186
33,470
34,110
34,405
35,45
35,349
35,666
36,306
36,602
37,242
37,522
38,162
38,451
39,91
39,383
39,670
40,310
40,611
41,251
41,550
42,190
42,487
43,127
43,419
44,59
44,343
44,624
45,264
45,555
46,195
46,498
47,138
47,438
48,78
48,377
48,667
49,307
49,587
50,227
50,514
51,154
51,435
52,75
52,360
52,668
53,308
53,613
54,253
54,549
55,189
55,471
56,111
56,394
56,677
57,317
57,611
58,251
58,543
59,183
59,489
60,129
60,429
61,69
61,361
61,643
62,283
62,561
63,201
63,484
64,124
64,413
65,53
65,356
65,653
66,293
66,585
67,225
67,505
68,145
68,433
69,73
69,357
69,645
70,285
70,579
71,219
71,528
72,168
72,466
73,106
73,390
73,672
74,312
74,597
75,237
75,536
76,176
76,473
77,113
77,412
78,52
78,351
78,646
79,286
79,574
80,214
80,494
81,134
81,420
82,60
82,353
82,662
83,302
83,607
84,247
84,539
85,179
85,465
86,105
86,388
86,675
87,315
87,607
88,247
88,544
89,184
89,489
90,129
90,436
91,76
91,367
91,643
92,283
92,571
93,211
93,500
94,140
94,434
95,74
95,375
95,670
96,310
96,608
97,248
97,535
98,175
98,456
99,96
99,376
99,669
100,309
100,605
101,245
101,556
102,196
102,495
103,135
103,419
104,59
104,342
104,631
105,271
105,556
106,196
106,491
107,131
107,430
108,70
108,372
108,667
109,307
109,585
110,225
110,496
111,136
111,422
112,62
112,357
112,650
113,290
113,591
114,231
114,527
115,167
115,449
116,89
116,356
116,655
117,295
117,577
118,217
118,516
119,156
119,467
120,107
120,403
121,43
121,332
121,612
122,252
122,535
123,175
123,463
124,103
124,390
124,683
125,323
125,627
126,267
126,564
127,204
127,484
128,124
128,398
128,679
129,38
129,319
129,597
130,237
130,534
131,174
131,472
132,112
132,399
132,682
133,39
133,322
133,605
134,245
134,526
135,166
135,440
136,80
136,363
136,658
137,298
137,603
138,243
138,534
139,174
139,451
140,91
140,371
140,656
141,296
141,579
142,219
142,506
143,146
143,441
144,81
144,376
144,666
145,306
145,584
146,224
146,503
147,143
147,421
148,61
148,351
148,642
149,282
149,579
150,219
150,507
151,147
151,424
152,64
152,344
152,623
153,263
153,544
154,184
154,467
155,107
155,407
156,47
156,342
156,624
157,264
157,535
158,175
158,453
159,93
159,375
159,660
160,300
160,592
161,232
161,530
162,170
162,468
163,108
163,397
163,674
164,37
164,314
164,591
165,231
165,519
166,159
166,454
167,94
167,395
168,35
168,337
168,625
169,265
169,551
170,191
170,480
171,120
171,403
172,43
172,327
172,627
173,267
173,571
174,211
174,514
175,154
175,438
176,78
176,351
176,638
177,278
177,568
178,208
178,501
179,141
179,436
180,76
180,374
180,664
181,304
181,590
182,230
182,510
183,150
183,427
184,67
184,364
184,551
185,191
185,530
186,170
186,474
187,114
187,408
188,48
188,327
188,622
189,262
189,554
190,194
190,486
191,126
191,430
192,70
192,383
192,676
193,316
193,593
194,233
194,517
195,157
195,442
196,82
196,381
196,679
197,319
197,619
198,259
198,565
199,205
199,498
200,138
200,417
201,57
201,343
201,638
202,278
202,581
203,221
203,531
204,171
204,471
205,111
205,395
205,683
206,35
206,323
206,607
207,247
207,466
208,106
208,452
209,92
209,392
210,334
210,633
211,273
211,555
212,195
212,465
213,105
213,394
214,326
214,623
215,263
215,554
216,194
216,491
217,131
217,419
218,59
218,344
218,620
219,260
219,546
220,186
220,489
221,129
221,431
222,71
222,370
222,663
223,303
223,588
224,228
224,512
225,152
225,439
226,79
226,370
226,670
227,310
227,615
228,255
228,556
229,196
229,487
230,127
230,409
231,49
231,332
231,634
232,274
232,583
233,223
233,527
234,167
234,469
235,109
235,410
236,50
236,343
236,620
237,260
237,550
238,190
238,491
239,131
239,438
240,78
240,380
240,679
241,319
241,604
242,244
242,532
243,172
243,461
244,101
244,392
245,330
245,634
246,274
246,575
247,215
247,501
248,141
248,423
249,63
249,348
249,646
250,286
250,590
251,230
251,524
252,164
252,470
253,110
253,401
253,681
254,41
254,321
254,606
255,246
255,538
256,178
256,473
257,113
257,424
258,64
258,366
258,654
259,294
259,584
260,224
260,502
261,142
261,435
262,75
262,373
262,676
263,316
263,618
264,258
264,566
265,206
265,493
266,133
266,411
267,51
267,330
267,626
268,266
268,570
269,210
269,508
270,148
270,444
271,84
271,376
271,668
272,308
272,588
273,228
273,509
274,149
274,444
275,84
275,382
275,579
276,219
276,570
277,210
277,498
278,138
278,416
279,56
279,341
279,631
280,271
280,560
281,200
281,493
282,133
282,421
283,61
283,354
283,636
284,276
284,553
285,193
285,474
286,114
286,411
287,51
287,349
287,644
288,284
288,581
289,221
289,505
290,145
290,430
291,70
291,358
291,647
292,287
292,587
293,227
293,535
294,175
294,474
295,114
295,400
295,682
296,40
296,322
296,599
297,239
297,533
298,173
298,470
299,110
299,405
300,45
300,342
300,643
301,283
301,566
302,206
302,479
303,119
303,405
304,45
304,332
304,636
305,276
305,574
306,214
306,513
307,153
307,443
308,83
308,363
308,644
309,284
309,570
310,210
310,508
311,148
311,445
312,85
312,390
312,680
313,320
313,601
314,241
314,522
315,162
315,450
316,90
316,382
316,668
317,308
317,596
318,236
318,520
319,160
319,440
320,80
320,347
320,615
321,255
321,524
322,164
322,449
323,89
323,374
323,659
324,299
324,573
325,213
325,494
326,134
326,406
326,684
327,46
327,324
327,603
328,243
328,527
329,167
329,471
330,111
330,415
331,55
331,349
331,631
332,271
332,557
333,197
333,496
334,136
334,436
335,76
335,390
336,340
336,644
337,284
337,569
338,209
338,490
339,130
339,421
340,61
340,350
340,650
341,290
341,600
342,240
342,544
343,184
343,456
344,96
344,381
344,667
345,307
345,575
346,215
346,500
347,140
347,435
348,75
348,368
348,646
349,286
349,563
350,203
350,476
351,116
351,386
351,665
352,305
352,593
353,233
353,523
354,163
354,452
354,645
355,92
355,285
355,623
356,263
356,538
357,178
357,438
358,78
358,350
358,639
359,279
359,558
360,198
360,457
361,97
361,358
361,608
362,248
362,498
363,138
363,393
363,646
364,286
364,544
365,184
365,451
366,91
366,362
366,620
367,260
367,509
368,149
368,403
368,652
369,43
369,292
369,549
370,189
370,462
371,102
371,373
371,637
372,277
372,543
373,183
373,457
374,97
374,350
374,603
375,243
375,504
376,144
376,420
377,60
377,341
377,630
378,270
378,550
379,190
379,459
380,99
380,371
380,649
381,289
381,569
382,209
382,488
383,128
383,424
384,64
384,358
384,648
385,288
385,564
386,204
386,480
387,120
387,399
388,39
388,329
388,622
389,262
389,559
390,199
390,481
391,121
391,392
391,663
392,303
392,563
393,203
393,463
394,103
394,367
394,639
395,279
395,546
396,186
396,450
397,90
397,345
397,595
398,235
398,486
399,126
399,385
399,646
400,286
400,557
401,197
401,472
402,112
402,391
402,661
403,301
403,567
404,207
404,462
405,102
405,370
405,645
406,285
406,577
407,217
407,493
408,133
408,410
408,685
409,50
409,325
409,592
410,232
410,499
411,139
411,403
411,677
412,43
412,317
412,596
413,236
413,524
414,164
414,448
415,88
415,368
415,630
416,270
416,543
417,183
417,455
418,95
418,369
418,642
419,282
419,567
420,207
420,500
421,140
421,414
421,677
422,54
422,317
422,590
423,230
423,501
424,141
424,427
425,67
425,362
425,644
426,284
426,562
427,202
427,472
428,112
428,390
428,661
429,301
429,569
430,209
430,491
431,131
431,428
432,68
432,344
432,612
433,252
433,514
434,154
434,408
434,666
435,48
435,306
435,568
436,208
436,470
437,110
437,375
437,640
438,280
438,553
439,193
439,449
440,89
440,329
440,574
441,214
441,465
442,105
442,359
442,617
443,257
443,521
444,161
444,420
444,667
445,60
445,307
445,555
446,195
446,444
447,84
447,334
447,579
448,219
448,484
449,124
449,395
449,668
450,35
450,308
450,573
451,213
451,475
452,115
452,373
452,642
453,282
453,549
454,189
454,459
455,99
455,381
455,661
456,301
456,571
457,211
457,471
458,111
458,366
458,619
459,259
459,516
460,156
460,432
461,72
461,341
461,610
462,250
462,521
463,161
463,431
464,71
464,331
464,601
465,241
465,512
466,152
466,430
467,70
467,364
467,664
468,304
468,594
469,234
469,509
470,149
470,429
471,69
471,347
471,641
472,281
472,575
473,215
473,439
474,79
474,434
475,74
475,371
475,652
476,292
476,561
477,201
477,479
478,119
478,401
479,41
479,336
479,627
480,267
480,551
481,191
481,469
482,109
482,387
482,656
483,296
483,571
484,211
484,497
485,137
485,423
486,63
486,363
486,648
487,288
487,557
488,197
488,465
489,105
489,387
489,658
490,298
490,575
491,215
491,488
492,128
492,403
492,677
493,43
493,317
493,579
494,219
494,476
495,116
495,377
495,641
496,281
496,557
497,197
497,467
498,107
498,382
498,647
499,287
499,542
500,182
500,443
501,83
501,345
501,604
502,244
502,516
503,156
503,443
504,83
504,371
504,644
505,284
505,553
506,193
506,464
507,104
507,376
507,661
508,301
508,595
509,235
509,538
510,178
510,471
511,111
511,401
512,41
512,329
512,613
513,253
513,533
514,173
514,470
515,110
515,428
516,68
516,377
516,668
517,308
517,597
518,237
518,525
519,165
519,451
520,91
520,377
520,672
521,312
521,619
522,259
522,561
523,201
523,483
524,123
524,403
525,43
525,330
525,624
526,264
526,569
527,209
527,508
528,148
528,449
529,89
529,380
529,672
530,312
530,595
531,235
531,514
532,154
532,457
533,97
533,401
534,41
534,335
534,622
535,262
535,546
536,186
536,463
537,103
537,382
537,674
538,314
538,601
539,241
539,534
540,174
540,468
541,108
541,395
541,666
542,35
542,306
542,581
543,221
543,498
544,138
544,428
545,68
545,360
545,647
546,287
546,572
547,212
547,494
548,134
548,405
548,669
549,45
549,309
549,584
550,224
550,504
551,144
551,431
552,71
552,355
552,633
553,273
553,539
554,179
554,454
555,94
555,361
555,634
556,274
556,554
557,194
557,472
558,112
558,391
558,665
559,305
559,566
560,206
560,467
561,107
561,379
561,654
562,294
562,576
563,216
563,502
564,142
564,428
565,68
565,341
565,621
566,261
566,539
567,179
567,454
568,94
568,374
568,678
569,318
569,619
570,259
570,537
571,177
571,456
572,96
572,368
572,647
573,287
573,564
574,204
574,489
575,129
575,421
576,61
576,364
576,644
577,284
577,557
578,197
578,468
579,108
579,382
579,660
580,300
580,592
581,232
581,523
582,163
582,453
583,93
583,376
583,653
584,293
584,569
585,209
585,485
586,125
586,404
587,44
587,334
587,631
588,271
588,548
589,188
589,462
590,102
590,378
590,658
591,298
591,566
592,206
592,486
593,126
593,414
594,54
594,341
594,625
595,265
595,538
596,178
596,445
597,85
597,360
597,643
598,283
598,570
599,210
599,501
600,141
600,431
601,71
601,350
601,630
602,270
602,548
603,188
603,467
604,107
604,384
604,682
605,322
605,616
606,256
606,543
607,183
607,452
608,92
608,366
608,649
609,289
609,573
610,213
610,498
611,138
611,431
612,71
612,371
612,657
613,297
613,572
614,212
614,487
615,127
615,404
615,681
616,44
616,321
616,615
617,255
617,546
618,186
618,471
619,111
619,387
619,667
620,307
620,583
621,223
621,487
622,127
622,408
623,48
623,341
623,635
624,275
624,555
625,195
625,472
626,112
626,383
626,664
627,304
627,576
628,216
628,493
629,133
629,423
630,63
630,344
630,626
631,266
631,542
632,182
632,455
633,95
633,358
633,636
634,276
634,568
635,208
635,494
636,134
636,416
637,56
637,339
637,616
638,256
638,534
639,174
639,444
640,84
640,361
640,658
641,298
641,597
642,237
642,518
643,158
643,433
644,73
644,350
644,619
645,259
645,532
646,172
646,455
647,95
647,381
647,668
648,308
648,595
649,235
649,511
650,151
650,415
650,684
651,55
651,324
651,599
652,239
652,529
653,169
653,467
654,107
654,387
654,668
655,308
655,590
656,230
656,504
657,144
657,407
657,685
658,47
658,325
658,615
659,255
659,543
660,183
660,470
661,110
661,383
661,650
662,290
662,564
663,204
663,477
664,117
664,393
664,677
665,317
665,596
666,236
666,506
667,146
667,421
668,61
668,329
668,585
669,225
669,478
670,118
670,388
670,655
671,295
671,554
672,194
672,453
673,93
673,352
673,599
674,239
674,491
675,131
675,388
675,643
676,283
676,548
677,188
677,471
678,111
678,381
678,649
679,289
679,544
680,184
680,446
681,86
681,355
681,631
682,271
682,545
683,185
683,472
684,112
684,407
685,47
685,335
685,601
686,241
686,509
687,149
687,422
688,62
688,337
688,620
689,260
689,546
690,186
690,478
691,118
691,397
691,673
692,37
692,313
692,586
693,226
693,508
694,148
694,433
695,73
695,357
695,658
696,298
696,600
697,240
697,521
698,161
698,430
699,70
699,354
699,645
700,285
700,584
701,224
701,508
702,148
702,439
703,79
703,376
703,661
704,301
704,570
705,210
705,482
706,122
706,425
707,65
707,371
707,650
708,290
708,573
709,213
709,498
710,138
710,427
711,67
711,335
711,612
712,252
712,540
713,180
713,477
714,117
714,399
714,670
715,39
715,310
715,566
716,206
716,466
717,106
717,358
717,617
718,257
718,525
719,165
719,440
720,80
720,341
720,611
721,251
721,516
722,156
722,414
722,665
723,54
723,305
723,572
724,212
724,492
725,132
725,417
726,57
726,330
726,608
727,248
727,521
728,161
728,436
729,76
729,348
729,622
730,262
730,550
731,190
731,481
732,121
732,411
733,51
733,337
733,619
734,259
734,532
735,172
735,462
736,102
736,394
737,331
737,627
738,267
738,558
739,198
739,488
740,128
740,415
741,55
741,339
741,615
742,255
742,559
743,199
743,498
744,138
744,420
745,60
745,344
745,623
746,263
746,542
747,182
747,463
748,103
748,389
748,679
749,319
749,616
750,256
750,550
751,190
751,461
752,101
752,374
752,650
753,290
753,576
754,216
754,512
755,152
755,444
756,84
756,373
756,679
757,319
757,603
758,243
758,514
759,154
759,435
760,75
760,367
760,664
761,304
761,600
762,240
762,532
763,172
763,451
764,91
764,363
764,631
765,271
765,549
766,189
766,475
767,115
767,396
767,684
768,36
768,324
768,622
769,262
769,548
770,188
770,449
771,89
771,363
771,651
772,291
772,598
773,238
773,534
774,174
774,458
775,98
775,382
775,575
776,215
776,558
777,198
777,488
778,128
778,431
779,71
779,374
779,670
780,310
780,601
781,241
781,522
782,162
782,435
783,75
783,352
783,633
784,273
784,561
785,201
785,496
786,136
786,429
787,69
787,351
787,623
788,263
788,536
789,176
789,451
790,91
790,378
790,673
791,313
791,603
792,243
792,532
793,172
793,456
794,96
794,370
794,646
795,286
795,563
796,203
796,491
797,131
797,433
798,73
798,375
798,664
799,304
799,585
800,225
800,506
801,146
801,432
802,72
802,356
802,653
803,293
803,587
804,227
804,530
805,170
805,457
806,97
806,378
806,653
807,293
807,589
808,229
808,527
809,167
809,456
810,96
810,390
810,681
811,321
811,606
812,246
812,524
813,164
813,443
814,83
814,371
814,672
815,312
815,611
816,251
816,536
817,176
817,461
818,101
818,377
818,662
819,302
819,581
820,221
820,517
821,157
821,453
822,93
822,399
823,39
823,331
823,609
824,249
824,529
825,169
825,450
826,90
826,378
826,672
827,312
827,614
828,254
828,547
829,187
829,480
830,120
830,406
830,683
831,46
831,323
831,596
832,236
832,531
833,171
833,480
834,120
834,422
835,62
835,339
835,610
836,250
836,534
837,174
837,461
838,101
838,383
838,667
839,307
839,604
840,244
840,547
841,187
841,480
842,120
842,382
842,652
843,292
843,585
844,225
844,521
845,161
845,439
846,79
846,363
846,651
847,291
847,577
848,217
848,428
849,68
849,395
850,35
850,337
850,640
851,280
851,583
852,223
852,514
853,154
853,433
853,665
854,73
854,305
854,622
855,262
855,549
856,189
856,465
857,105
857,391
858,336
858,635
859,275
859,540
860,180
860,452
861,92
861,372
861,666
862,306
862,594
863,234
863,519
864,159
864,448
865,88
865,382
865,662
866,302
866,567
867,207
867,485
868,125
868,345
869,353
869,668
870,308
870,608
871,248
871,530
872,170
872,453
873,93
873,384
873,672
874,312
874,605
875,245
875,541
876,181
876,483
877,123
877,415
878,55
878,335
878,613
879,253
879,540
880,180
880,466
881,106
881,400
881,625
882,40
882,265
882,625
883,265
883,557
884,197
884,489
885,129
885,411
885,623
886,51
886,263
886,626
887,266
887,584
888,224
888,525
889,165
889,453
890,93
890,386
890,672
891,312
891,611
892,251
892,543
893,183
893,488
894,128
894,435
895,75
895,373
895,656
896,296
896,577
897,217
897,505
898,145
898,450
899,90
899,404
900,44
900,340
900,640
901,280
901,569
902,209
902,495
903,135
903,414
904,54
904,342
904,648
905,288
905,595
906,235
906,537
907,177
907,466
908,106
908,396
908,685
909,36
909,325
909,618
910,258
910,549
911,189
911,492
912,132
912,433
913,73
913,376
913,659
914,299
914,579
915,219
915,512
916,152
916,456
917,96
917,404
918,44
918,339
918,643
919,283
919,571
920,211
920,504
921,144
921,429
922,69
922,359
922,668
923,308
923,617
924,257
924,559
925,199
925,479
926,119
926,408
927,48
927,336
927,628
928,268
928,563
929,203
929,503
930,143
930,448
931,88
931,383
931,663
932,303
932,580
933,220
933,505
934,145
934,439
935,79
935,379
935,681
936,321
936,611
937,251
937,542
938,182
938,465
939,105
939,392
939,680
940,320
940,625
941,265
941,567
942,207
942,514
943,154
943,445
944,85
944,365
944,651
945,291
945,580
946,220
946,514
947,154
947,459
948,99
948,404
949,44
949,334
949,626
950,266
950,547
951,187
951,462
952,102
952,395
953,35
953,329
953,625
954,265
954,554
955,194
955,479
956,119
956,396
956,682
957,36
957,322
957,609
958,249
958,535
959,175
959,482
960,122
960,417
961,57
961,348
961,636
962,276
962,484
963,124
963,467
964,107
964,414
965,54
965,359
965,663
966,303
966,606
967,246
967,538
968,178
968,454
969,94
969,381
969,662
970,302
970,604
971,244
971,552
972,192
972,490
973,130
973,412
974,52
974,340
974,625
975,265
975,481
976,121
976,460
977,100
977,395
978,35
978,335
978,631
979,271
979,546
980,186
980,457
981,97
981,388
981,672
982,312
982,608
983,248
983,546
984,186
984,477
985,117
985,415
986,55
986,342
986,619
987,259
987,538
988,178
988,484
989,124
989,423
990,63
990,358
990,645
991,285
991,567
992,207
992,490
993,130
993,420
994,60
994,346
994,642
995,282
995,588
996,228
996,526
997,166
997,445
998,85
998,353
998,623
999,263
999,542
1000,182
1000,470
1001,110
1001,403
1002,43
1002,331
1002,623
1003,263
1003,545
1004,185
1004,454
1005,94
1005,362
1005,651
1006,291
1006,572
1007,212
1007,506
1008,146
1008,438
1009,78
1009,366
1009,638
1010,278
1010,558
1011,198
1011,486
1012,126
1012,410
1013,50
1013,342
1013,650
1014,290
1014,600
1015,240
1015,514
1016,154
1016,431
1017,71
1017,362
1017,658
1018,298
1018,583
1019,223
1019,523
1020,163
1020,474
1021,114
1021,400
1022,40
1022,327
1022,611
1023,251
1023,544
1024,184
1024,469
1025,109
1025,410
1026,50
1026,354
1026,650
1027,290
1027,559
1028,199
1028,477
1029,117
1029,402
1030,42
1030,331
1030,605
1031,245
1031,543
1032,183
1032,487
1033,127
1033,419
1033,677
1034,59
1034,317
1034,594
1035,234
1035,523
1036,163
1036,467
1037,107
1037,392
1037,680
1038,320
1038,623
1039,263
1039,554
1040,194
1040,454
1041,94
1041,364
1041,652
1042,292
1042,595
1043,235
1043,518
1044,158
1044,447
1045,87
1045,376
1045,661
1046,301
1046,521
1047,161
1047,484
1048,124
1048,420
1049,60
1049,365
1049,668
1050,308
1050,608
1051,248
1051,525
1052,165
1052,439
1053,79
1053,359
1053,651
1054,291
1054,583
1055,223
1055,512
1056,152
1056,450
1057,90
1057,378
1057,652
1058,292
1058,572
1059,212
1059,484
1060,124
1060,414
1061,54
1061,348
1061,647
1062,287
1062,575
1063,215
1063,503
1064,143
1064,417
1065,57
1065,343
1065,627
1066,267
1066,557
1067,197
1067,494
1068,134
1068,435
1069,75
1069,365
1069,647
1070,287
1070,568
1071,208
1071,490
1072,130
1072,428
1073,68
1073,369
1073,661
1074,301
1074,601
1075,241
1075,533
1076,173
1076,451
1077,91
1077,364
1077,653
1078,293
1078,591
1079,231
1079,539
1080,179
1080,477
1081,117
1081,403
1082,43
1082,339
1082,629
1083,269
1083,554
1084,194
1084,490
1085,130
1085,439
1086,79
1086,384
1086,681
1087,321
1087,603
1088,243
1088,524
1089,164
1089,453
1090,93
1090,380
1090,677
1091,317
1091,617
1092,257
1092,554
1093,194
1093,477
1094,117
1094,403
1094,679
1095,43
1095,319
1095,601
1096,241
1096,536
1097,176
1097,481
1098,121
1098,417
1099,57
1099,348
1099,628
1100,268
1100,552
1101,192
1101,485
1102,125
1102,413
1102,615
1103,53
1103,255
1103,624
1104,264
1104,567
1105,207
1105,494
1106,134
1106,409
1107,49
1107,333
1107,619
1108,259
1108,556
1109,196
1109,490
1110,130
1110,423
1111,63
1111,362
1111,639
1112,279
1112,557
1113,197
1113,483
1114,123
1114,413
1115,53
1115,357
1115,660
1116,300
1116,600
1117,240
1117,526
1118,166
1118,453
1119,93
1119,375
1119,669
1120,309
1120,604
1121,244
1121,540
1122,180
1122,483
1123,123
1123,417
1124,57
1124,340
1124,615
1125,255
1125,543
1126,183
1126,476
1127,116
1127,410
1128,50
1128,345
1128,635
1129,275
1129,565
1130,205
1130,488
1131,128
1131,399
1132,39
1132,329
1132,631
1133,271
1133,572
1134,212
1134,505
1135,145
1135,430
1136,70
1136,354
1136,637
1137,277
1137,561
1138,201
1138,496
1139,136
1139,436
1140,76
1140,381
1140,671
1141,311
1141,592
1142,232
1142,512
1143,152
1143,435
1144,75
1144,366
1144,671
1145,311
1145,616
1146,256
1146,549
1147,189
1147,482
1148,122
1148,412
1149,52
1149,329
1149,609
1150,249
1150,541
1151,181
1151,487
1152,127
1152,423
1153,63
1153,350
1153,623
1154,263
1154,554
1155,194
1155,475
1156,115
1156,395
1157,35
1157,329
1157,632
1158,272
1158,565
1159,205
1159,488
1160,128
1160,406
1160,683
1161,46
1161,323
1161,617
1162,257
1162,546
1163,186
1163,475
1164,115
1164,413
1165,53
1165,345
1165,621
1166,261
1166,541
1167,181
1167,463
1168,103
1168,393
1169,333
1169,634
1170,274
1170,566
1171,206
1171,434
1172,74
1172,400
1172,683
1173,40
1173,323
1173,538
1174,178
1174,524
1175,164
1175,462
1176,102
1176,407
1177,47
1177,344
1177,619
1178,259
1178,536
1179,176
1179,453
1180,93
1180,388
1181,331
1181,628
1182,268
1182,557
1183,197
1183,500
1184,140
1184,421
1185,61
1185,338
1185,625
1186,265
1186,563
1187,203
1187,507
1188,147
1188,449
1189,89
1189,373
1189,658
1190,298
1190,592
1191,232
1191,516
1192,156
1192,438
1193,78
1193,387
1193,685
1194,325
1194,630
1195,270
1195,554
1196,194
1196,474
1197,114
1197,395
1198,35
1198,335
1198,630
1199,270
1199,569
1200,209
1200,509
1201,149
1201,439
1202,79
1202,362
1202,644
1203,284
1203,568
1204,208
1204,401
1205,41
1205,411
1206,51
1206,353
1206,650
1207,290
1207,576
1208,216
1208,490
1209,130
1209,418
1210,58
1210,351
1210,549
1211,189
1211,552
1212,192
1212,499
1213,139
1213,438
1214,78
1214,360
1214,642
1215,282
1215,564
1216,204
1216,508
1217,148
1217,450
1218,90
1218,385
1218,678
1219,318
1219,613
1220,253
1220,540
1221,180
1221,462
1222,102
1222,392
1223,342
1223,653
1224,293
1224,590
1225,230
1225,518
1226,158
1226,454
1227,94
1227,389
1228,326
1228,543
1229,183
1229,552
1230,192
1230,504
1231,144
1231,446
1232,86
1232,368
1232,655
1233,295
1233,593
1234,233
1234,465
1235,105
1235,460
1236,100
1236,402
1237,42
1237,338
1237,628
1238,268
1238,546
1239,186
1239,467
1240,107
1240,399
1241,39
1241,344
1241,641
1242,281
1242,575
1243,215
1243,500
1244,140
1244,424
1245,64
1245,348
1245,634
1246,274
1246,577
1247,217
1247,521
1248,161
1248,468
1249,108
1249,397
1249,685
1250,37
1250,325
1250,606
1251,246
1251,535
1252,175
1252,472
1253,112
1253,421
1254,61
1254,365
1254,660
1255,300
1255,590
1256,230
1256,517
1257,157
1257,439
1258,79
1258,370
1258,665
1259,305
1259,612
1260,252
1260,554
1261,194
1261,483
1262,123
1262,330
1262,677
1263,317
1263,613
1264,253
1264,547
1265,187
1265,487
1266,127
1266,429
1267,69
1267,367
1267,651
1268,291
1268,565
1269,205
1269,493
1270,133
1270,434
1271,74
1271,377
1271,608
1272,248
1272,603
1273,243
1273,536
1274,176
1274,463
1275,103
1275,380
1275,664
1276,304
1276,606
1277,246
1277,555
1278,195
1278,491
1279,131
1279,418
1280,58
1280,348
1280,633
1281,273
1281,561
1282,201
1282,494
1283,134
1283,434
1284,74
1284,381
1284,679
1285,319
1285,597
1286,237
1286,521
1287,161
1287,444
1288,84
1288,369
1288,681
1289,321
1289,624
1290,264
1290,559
1291,199
1291,496
1292,136
1292,418
1293,58
1293,340
1293,624
1294,264
1294,564
1295,204
1295,507
1296,147
1296,450
1297,90
1297,388
1297,669
1298,309
1298,598
1299,238
1299,524
1300,164
1300,459
1301,99
1301,402
1302,42
1302,345
1302,643
1303,283
1303,580
1304,220
1304,501
1305,141
1305,430
1306,70
1306,370
1306,677
1307,317
1307,618
1308,258
1308,564
1309,204
1309,487
1310,127
1310,418
1311,58
1311,344
1311,628
1312,268
1312,567
1313,207
1313,521
1314,161
1314,458
1315,98
1315,392
1315,674
1316,314
1316,602
1317,242
1317,532
1318,172
1318,462
1319,102
1319,397
1320,37
1320,347
1320,651
1321,291
1321,576
1322,216
1322,497
1323,137
1323,425
1324,65
1324,359
1324,667
1325,307
1325,604
1326,244
1326,538
1327,178
1327,475
1328,115
1328,400
1328,677
1329,40
1329,317
1329,599
1330,239
1330,532
1331,172
1331,473
1332,113
1332,411
1333,51
1333,338
1333,614
1334,254
1334,539
1335,179
1335,457
1336,97
1336,380
1336,681
1337,321
1337,621
1338,261
1338,559
1339,199
1339,485
1340,125
1340,401
1340,671
1341,41
1341,311
1341,590
1342,230
1342,514
1343,154
1343,450
1344,90
1344,380
1344,667
1345,307
1345,585
1346,225
1346,512
1347,152
1347,432
1348,72
1348,361
1348,659
1349,299
1349,613
1350,253
1350,556
1351,196
1351,484
1352,124
1352,409
1353,49
1353,343
1353,638
1354,278
1354,578
1355,218
1355,520
1356,160
1356,475
1357,115
1357,411
1358,51
1358,334
1358,617
1359,257
1359,548
1360,188
1360,490
1361,130
1361,433
1362,73
1362,375
1362,674
1363,314
1363,607
1364,247
1364,530
1365,170
1365,449
1366,89
1366,385
1366,684
1367,324
1367,630
1368,270
1368,566
1369,206
1369,499
1370,139
1370,423
1371,63
1371,354
1371,639
1372,279
1372,571
1373,211
1373,510
1374,150
1374,445
1375,85
1375,370
1375,649
1376,289
1376,564
1377,204
1377,481
1378,121
1378,419
1378,632
1379,59
1379,272
1379,634
1380,274
1380,576
1381,216
1381,504
1382,144
1382,424
1383,64
1383,350
1383,637
1384,277
1384,572
1385,212
1385,514
1386,154
1386,457
1387,97
1387,381
1387,667
1388,307
1388,587
1389,227
1389,509
1390,149
1390,447
1391,87
1391,385
1392,328
1392,625
1393,265
1393,559
1394,199
1394,476
1395,116
1395,401
1396,41
1396,328
1396,630
1397,270
1397,576
1398,216
1398,513
1399,153
1399,440
1400,80
1400,373
1400,654
1401,294
1401,575
1402,215
1402,507
1403,147
1403,448
1404,88
1404,390
1404,685
1405,325
1405,598
1406,238
1406,519
1407,159
1407,449
1408,89
1408,376
1408,672
1409,312
1409,615
1410,255
1410,559
1411,199
1411,495
1412,135
1412,424
1413,64
1413,339
1413,639
1414,279
1414,583
1415,223
1415,523
1416,163
1416,460
1417,100
1417,400
1417,684
1418,40
1418,324
1418,613
1419,253
1419,531
1420,171
1420,459
1421,99
1421,410
1422,50
1422,357
1422,647
1423,287
1423,571
1424,211
1424,495
1425,135
1425,424
1426,64
1426,359
1426,654
1427,294
1427,598
1428,238
1428,548
1429,188
1429,479
1430,119
1430,394
1430,675
1431,315
1431,602
1432,242
1432,545
1433,185
1433,491
1434,131
1434,427
1435,67
1435,370
1435,666
1436,306
1436,593
1437,233
1437,512
1438,152
1438,447
1439,87
1439,386
1440,334
1440,628
1441,268
1441,547
1442,187
1442,474
1443,114
1443,402
1443,669
1444,42
1444,309
1444,623
1445,263
1445,568
1446,208
1446,422
1447,62
1447,422
1448,62
1448,347
1448,633
1449,273
1449,569
1450,209
1450,511
1451,151
1451,455
1452,95
1452,396
1453,36
1453,336
1453,628
1454,268
1454,559
1455,199
1455,479
1456,119
1456,417
1457,57
1457,370
1457,678
1458,318
1458,612
1459,252
1459,540
1460,180
1460,464
1461,104
1461,395
1462,35
1462,326
1462,620
1463,260
1463,563
1464,203
1464,508
1465,148
1465,438
1466,78
1466,358
1466,642
1467,282
1467,569
1468,209
1468,511
1469,151
1469,453
1470,93
1470,399
1471,39
1471,337
1471,630
1472,270
1472,551
1473,191
1473,482
1474,122
1474,417
1475,57
1475,358
1475,668
1476,308
1476,607
1477,247
1477,537
1478,177
1478,464
1479,104
1479,388
1479,681
1480,321
1480,615
1481,255
1481,559
1482,199
1482,492
1483,132
1483,427
1484,67
1484,352
1484,632
1485,272
1485,561
1486,201
1486,499
1487,139
1487,448
1488,88
1488,387
1488,684
1489,324
1489,604
1490,244
1490,530
1491,170
1491,451
1492,91
1492,385
1493,330
1493,634
1494,274
1494,581
1495,221
1495,507
1496,147
1496,433
1497,73
1497,358
1497,655
1498,295
1498,593
1499,233
1499,532
1500,172
1500,471
1501,111
1501,408
1502,48
1502,332
1502,614
1503,254
1503,536
1504,176
1504,476
1505,116
1505,426
1506,66
1506,369
1506,665
1507,305
1507,595
1508,235
1508,527
1509,167
1509,449
1510,89
1510,383
1510,685
1511,325
1511,630
1512,270
1512,575
1513,215
1513,502
1514,142
1514,415
1515,55
1515,341
1515,622
1516,262
1516,546
1517,186
1517,479
1517,672
1518,119
1518,312
1519,359
1519,642
1520,282
1520,558
1521,198
1521,472
1522,112
1522,414
1523,54
1523,352
1523,646
1524,286
1524,577
1525,217
1525,501
1526,141
1526,424
1527,64
1527,350
1527,628
1528,268
1528,559
1529,199
1529,512
1530,152
1530,453
1531,93
1531,372
1531,655
1532,295
1532,576
1533,216
1533,505
1534,145
1534,440
1535,80
1535,374
1535,682
1536,322
1536,628
1537,268
1537,556
1538,196
1538,474
1539,114
1539,399
1539,683
1540,39
1540,323
1540,626
1541,266
1541,563
1542,203
1542,493
1543,133
1543,434
1544,74
1544,363
1544,646
1545,286
1545,565
1546,205
1546,496
1547,136
1547,441
1548,81
1548,387
1548,681
1549,321
1549,598
1550,238
1550,527
1551,167
1551,453
1552,93
1552,382
1552,675
1553,315
1553,615
1554,255
1554,557
1555,197
1555,495
1556,135
1556,416
1557,56
1557,326
1557,621
1558,261
1558,555
1559,195
1559,492
1560,132
1560,419
1561,59
1561,348
1561,631
1562,271
1562,492
1563,132
1563,461
1564,101
1564,383
1565,331
1565,630
1566,270
1566,560
1567,200
1567,481
1568,121
1568,402
1568,684
1569,42
1569,324
1569,612
1570,252
1570,541
1571,181
1571,480
1572,120
1572,339
1573,335
1573,619
1574,259
1574,544
1575,184
1575,379
1576,361
1576,667
1577,307
1577,606
1578,246
1578,544
1579,184
1579,479
1580,119
1580,404
1580,682
1581,44
1581,322
1581,602
1582,242
1582,538
1583,178
1583,486
1584,126
1584,427
1585,67
1585,357
1585,646
1586,286
1586,578
1587,218
1587,511
1588,151
1588,442
1589,82
1589,388
1590,330
1590,640
1591,280
1591,568
1592,208
1592,488
1593,128
1593,413
1594,53
1594,353
1594,589
1595,229
1595,585
1596,225
1596,535
1597,175
1597,466
1598,106
1598,398
1598,678
1599,38
1599,318
1599,608
1600,248
1600,551
1601,191
1601,502
1602,142
1602,442
1603,82
1603,376
1603,660
1604,300
1604,585
1605,225
1605,510
1606,150
1606,440
1607,80
1607,381
1607,684
1608,324
1608,568
1609,208
1609,550
1610,190
1610,474
1611,114
1611,397
1612,37
1612,327
1612,627
1613,267
1613,566
1614,206
1614,502
1615,142
1615,434
1616,74
1616,359
1616,635
1617,275
1617,548
1618,188
1618,439
1619,79
1619,399
1620,39
1620,338
1620,621
1621,261
1621,537
1622,177
1622,443
1623,83
1623,354
1623,623
1624,263
1624,535
1625,175
1625,454
1626,94
1626,371
1626,651
1627,291
1627,555
1628,195
1628,445
1629,85
1629,331
1629,590
1630,230
1630,499
1631,139
1631,412
1631,683
1632,52
1632,323
1632,593
1633,233
1633,497
1634,137
1634,403
1634,665
1635,43
1635,305
1635,577
1636,217
1636,494
1637,134
1637,427
1638,67
1638,360
1638,636
1639,276
1639,548
1640,188
1640,463
1641,103
1641,383
1641,657
1642,297
1642,586
1643,226
1643,519
1644,159
1644,448
1645,88
1645,371
1645,653
1646,293
1646,508
1647,148
1647,467
1648,107
1648,403
1649,43
1649,350
1649,640
1650,280
1650,563
1651,203
1651,495
1652,135
1652,407
1652,682
1653,47
1653,322
1653,609
1654,249
1654,552
1655,192
1655,478
1656,118
1656,423
1657,63
1657,359
1657,616
1658,256
1658,522
1659,162
1659,430
1659,685
1660,70
1660,325
1660,586
1661,226
1661,498
1662,138
1662,393
1662,649
1663,289
1663,542
1664,182
1664,428
1664,663
1665,68
1665,303
1665,552
1666,192
1666,454
1667,94
1667,363
1667,618
1668,258
1668,531
1669,171
1669,432
1670,72
1670,337
1670,599
1671,239
1671,504
1672,144
1672,410
1673,50
1673,330
1673,613
1674,253
1674,538
1675,178
1675,455
1676,95
1676,361
1676,629
1677,269
1677,556
1678,196
1678,483
1679,123
1679,404
1680,44
1680,348
1680,659
1681,299
1681,577
1682,217
1682,488
1683,128
1683,413
1684,53
1684,347
1684,640
1685,280
1685,578
1686,218
1686,515
1687,155
1687,446
1688,86
1688,363
1688,629
1689,269
1689,536
1690,176
1690,453
1691,93
1691,376
1691,665
1692,305
1692,595
1693,235
1693,507
1694,147
1694,422
1695,62
1695,344
1695,623
1696,263
1696,548
1697,188
1697,479
1698,119
1698,415
1699,55
1699,346
1699,623
1700,263
1700,539
1701,179
1701,459
1702,99
1702,388
1702,679
1703,319
1703,613
1704,253
1704,543
1705,183
1705,459
1706,99
1706,379
1706,656
1707,296
1707,569
1708,209
1708,490
1709,130
1709,436
1710,76
1710,368
1710,650
1711,290
1711,566
1712,206
1712,483
1713,123
1713,406
1714,46
1714,326
1714,615
1715,255
1715,549
1716,189
1716,488
1717,128
1717,408
1717,684
1718,48
1718,324
1718,601
1719,241
1719,522
1720,162
1720,453
1721,93
1721,391
1722,329
1722,621
1723,261
1723,545
1724,185
1724,462
1725,102
1725,379
1725,661
1726,301
1726,584
1727,224
1727,526
1728,166
1728,461
1729,101
1729,383
1729,649
1730,289
1730,567
1731,207
1731,478
1732,118
1732,397
1732,670
1733,37
1733,310
1733,602
1734,242
1734,525
1735,165
1735,448
1736,88
1736,349
1736,619
1737,259
1737,533
1738,173
1738,458
1739,98
1739,387
1739,675
1740,315
1740,599
1741,239
1741,521
1742,161
1742,435
1743,75
1743,347
1743,623
1744,263
1744,551
1745,191
1745,488
1746,128
1746,421
1746,610
1747,61
1747,250
1747,574
1748,214
1748,481
1749,121
1749,387
1749,649
1750,289
1750,561
1751,201
1751,476
1752,116
1752,390
1752,657
1753,297
1753,555
1754,195
1754,458
1755,98
1755,356
1755,614
1756,254
1756,527
1757,167
1757,438
1758,78
1758,349
1758,618
1759,258
1759,528
1760,168
1760,428
1760,683
1761,68
1761,323
1761,585
1762,225
1762,506
1763,146
1763,427
1764,67
1764,354
1764,644
1765,284
1765,566
1766,206
1766,478
1767,118
1767,400
1768,40
1768,331
1768,625
1769,265
1769,559
1770,199
1770,504
1771,144
1771,437
1772,77
1772,362
1772,640
1773,280
1773,566
1774,206
1774,500
1775,140
1775,446
1776,86
1776,384
1776,679
1777,319
1777,608
1778,248
1778,535
1779,175
1779,460
1780,100
1780,377
1780,679
1781,319
1781,617
1782,257
1782,545
1783,185
1783,457
1784,97
1784,374
1784,647
1785,287
1785,564
1786,204
1786,479
1787,119
1787,401
1787,685
1788,41
1788,325
1788,606
1789,246
1789,507
1790,147
1790,407
1790,663
1791,47
1791,303
1791,560
1792,200
1792,461
1793,101
1793,383
1793,652
1794,292
1794,553
1795,193
1795,458
1796,98
1796,356
1796,608
1797,248
1797,494
1798,134
1798,392
1798,654
1799,294
1799,563
1800,203
1800,477
1801,117
1801,373
1801,618
1802,258
1802,512
1803,152
1803,404
1803,653
1804,83
1804,396
1805,36
1805,351
1805,672
1806,312
1806,648
1807,288
1807,632
1808,272
1808,596
1809,236
1809,549
1810,189
1810,502
1811,142
1811,452
1812,92
1812,421
1813,61
1813,390
1814,360
1814,683
1815,323
1815,649
1816,289
1816,608
1817,248
1817,560
1818,200
1818,528
1819,168
1819,498
1820,138
1820,463
1821,103
1821,408
1822,48
1822,350
1822,662
1823,302
1823,622
1824,262
1824,586
1825,226
1825,545
1826,185
1826,494
1827,134
1827,441
1828,81
1828,385
1828,680
1829,320
1829,628
1830,268
1830,593
1831,233
1831,561
1832,201
1832,510
1833,150
1833,452
1834,92
1834,385
1834,670
1835,310
1835,600
1836,240
1836,529
1837,169
1837,458
1838,98
1838,381
1838,671
1839,311
1839,583
1840,223
1840,497
1841,137
1841,420
1842,60
1842,349
1842,653
1843,293
1843,600
1844,240
1844,523
1845,163
1845,435
1846,75
1846,354
1846,640
1847,280
1847,571
1848,211
1848,511
1849,151
1849,455
1850,95
1850,396
1851,36
1851,330
1851,612
1852,252
1852,534
1853,174
1853,459
1854,99
1854,396
1855,36
1855,327
1855,617
1856,257
1856,547
1857,187
1857,478
1858,118
1858,420
1859,60
1859,373
1860,333
1860,662
1861,302
1861,645
1862,285
1862,618
1863,258
1863,568
1864,208
1864,530
1865,170
1865,491
1866,131
1866,462
1867,102
1867,446
1868,86
1868,417
1869,57
1869,374
1870,330
1870,644
1871,284
1871,600
1872,240
1872,560
1873,200
1873,533
1874,173
1874,504
1875,144
1875,448
1876,88
1876,390
1877,357
1878,327
1878,663
1879,303
1879,621
1880,261
1880,574
1881,214
1881,523
1882,163
1882,478
1883,118
1883,421
1884,61
1884,355
1884,667
1885,307
1885,622
1886,262
1886,568
1887,208
1887,507
1888,147
1888,448
1889,88
1889,385
1890,350
1890,674
1891,314
1891,627
1892,267
1892,582
1893,222
1893,525
1894,165
1894,466
1895,106
1895,405
1896,45
1896,347
1896,657
1897,297
1897,611
1898,251
1898,550
1899,190
1899,479
1900,119
1900,420
1901,60
1901,368
1901,678
1902,318
1902,632
1903,272
1903,577
1904,217
1904,529
1905,169
1905,477
1906,117
1906,421
1907,61
1907,370
1908,333
1908,659
1909,299
1909,630
1910,270
1910,588
1911,228
1911,539
1912,179
1912,495
1913,135
1913,452
1914,92
1914,413
1915,53
1915,379
1916,348
1916,484
1916,579
1916,655
1917,124
1917,219
1917,295
1917,585
1918,225
1918,502
1919,142
1919,429
1920,69
1920,365
1920,660
1921,300
1921,594
1922,234
1922,510
1923,150
1923,428
1924,68
1924,346
1924,616
1925,256
1925,535
1926,175
1926,467
1927,107
1927,396
1928,36
1928,337
1928,630
1929,270
1929,553
1930,193
1930,479
1931,119
1931,417
1932,57
1932,360
1932,670
1933,310
1933,620
1934,260
1934,559
1935,199
1935,495
1935,590
1936,135
1936,230
1936,424
1937,64
1937,348
1937,636
1938,276
1938,581
1939,221
1939,525
1940,165
1940,462
1941,102
1941,379
1941,658
1942,298
1942,568
1943,208
1943,487
1944,127
1944,415
1945,55
1945,354
1945,640
1946,280
1946,567
1947,207
1947,485
1948,125
1948,399
1948,672
1949,39
1949,312
1949,594
1950,234
1950,527
1951,167
1951,461
1952,101
1952,387
1952,667
1953,307
1953,581
1954,221
1954,517
1955,157
1955,454
1956,94
1956,387
1956,685
1957,325
1957,630
1958,270
1958,571
1959,211
1959,507
1960,147
1960,447
1961,87
1961,398
1962,38
1962,372
1963,352
1964,328
1964,645
1965,285
1965,582
1966,222
1966,525
1967,165
1967,486
1968,126
1968,450
1969,90
1969,421
1970,61
1970,396
1971,36
1971,356
1971,664
1972,304
1972,609
1973,249
1973,555
1974,195
1974,527
1975,167
1975,498
1976,138
1976,439
1977,79
1977,392
1978,354
1979,417
1979,631
1980,57
1980,271
1980,607
1981,247
1981,572
1982,212
1982,547
1983,187
1983,489
1984,129
1984,445
1985,85
1985,415
1986,55
1986,386
1987,344
1987,684
1988,324
1988,649
1989,289
1989,598
1990,238
1990,550
1991,190
1991,511
1992,151
1992,484
1993,124
1993,465
1994,105
1994,430
1995,70
1995,376
1996,326
1996,637
1997,277
1997,602
1998,242
1998,577
1999,217
1999,552
2000,192
2000,528
2001,168
2001,480
2002,120
2002,430
2003,70
2003,381
2004,349
2004,680
2005,320
2005,642
2006,282
2006,587
2007,227
2007,520
2008,160
2008,472
2009,112
2009,429
2010,69
2010,396
2011,36
2011,376
2012,333
2012,656
2013,296
2013,614
2014,254
2014,567
2015,207
2015,533
2016,173
2016,511
2017,151
2017,481
2018,121
2018,458
2019,98
2019,427
2020,67
2020,387
2021,354
2022,334
2022,679
2023,319
2023,675
2024,315
2024,653
2025,293
2025,601
2026,241
2026,544
2027,184
2027,493
2028,133
2028,467
2029,107
2029,452
2030,92
2030,430
2031,70
2031,393
2032,363
2033,333
2033,667
2034,307
2034,633
2035,273
2035,617
2036,257
2036,598
2037,238
2037,547
2038,187
2038,495
2039,135
2039,472
2040,112
2040,458
2041,98
2041,432
2042,72
2042,388
2043,332
2043,643
2044,283
2044,592
2045,232
2045,545
2046,185
2046,534
2047,174
2047,520
2048,160
2048,498
2049,138
2049,467
2050,107
2050,438
2051,78
2051,425
2052,65
2052,418
2053,58
2053,420
2054,60
2054,399
2055,39
2055,377
2056,348
2056,677
2057,317
2057,663
2058,303
2058,654
2059,294
2059,647
2060,287
2060,631
2061,271
2061,611
2062,251
2062,591
2063,231
2063,577
2064,217
2064,557
2065,197
2065,556
2066,196
2066,549
2067,189
2067,519
2068,159
2068,488
2069,128
2069,463
2070,103
2070,467
2071,107
2071,469
2072,109
2072,461
2073,101
2073,444
2074,84
2074,412
2075,52
2075,390
2076,370
2077,367
2078,371
2079,358
2080,332
2080,656
2081,296
2081,640
2082,280
2082,642
2083,282
2083,646
2084,286
2084,626
2085,266
2085,611
2086,251
2086,593
2087,233
2087,575
2088,215
2088,585
2089,225
2089,597
2090,237
2090,595
2091,235
2091,561
2092,201
2092,530
2093,170
2093,508
2094,148
2094,482
2095,122
2095,438
2096,78
2096,412
2097,52
2097,372
2098,342
2098,665
2099,305
2099,642
2100,282
2100,648
2101,288
2101,647
2102,287
2102,638
2103,278
2103,612
2104,252
2104,574
2105,214
2105,558
2106,198
2106,554
2107,194
2107,554
2108,194
2108,558
2109,198
2109,546
2110,186
2110,531
2111,171
2111,527
2112,167
2112,529
2113,169
2113,551
2114,191
2114,565
2115,205
2115,562
2116,202
2116,560
2117,200
2117,565
2118,205
2118,575
2119,215
2119,585
2120,225
2120,594
2121,234
2121,561
2122,201
2122,582
2123,222
2123,333
2124,542
2125,182
2125,530
2126,170
2126,516
2127,156
2127,489
2128,129
2128,458
2129,98
2129,433
2130,73
2130,419
2131,59
2131,424
2132,64
2132,432
2133,72
2133,413
2134,53
2134,377
2135,352
2135,685
2136,325
2136,651
2137,291
2137,622
2138,262
2138,583
2139,223
2139,547
2140,187
2140,498
2141,138
2141,440
2142,80
2142,411
2143,51
2143,405
2144,45
2144,402
2145,42
2145,384
2146,355
2147,343
2148,339
2149,336
2150,333
2150,673
2151,313
2151,643
2152,283
2152,609
2153,249
2153,587
2154,227
2154,591
2155,231
2155,593
2156,233
2156,578
2157,218
2157,556
2158,196
2158,528
2159,168
2159,490
2160,130
2160,471
2161,111
2161,464
2162,104
2162,472
2163,112
2163,454
2164,94
2164,407
2165,47
2165,372
2166,329
2166,668
2167,308
2167,639
2168,279
2168,607
2169,247
2169,557
2170,197
2170,506
2171,146
2171,455
2172,95
2172,430
2173,70
2173,433
2174,73
2174,448
2175,88
2175,457
2176,97
2176,444
2177,84
2177,441
2178,81
2178,464
2178,659
2179,104
2179,299
2180,364
2181,367
2182,354
2183,345
2184,337
2185,347
2186,367
2187,352
2188,341
2189,334
2190,350
2191,369
2192,383
2193,393
2194,375
2195,366
2196,374
2197,393
2198,411
2199,51
2199,410
2200,50
2200,387
2201,386
2202,400
2203,40
2203,419
2204,59
2204,439
2205,79
2205,448
2206,88
2206,436
2207,76
2207,427
2208,67
2208,438
2209,78
2209,449
2210,89
2210,444
2211,84
2211,441
2212,81
2212,435
2213,75
2213,431
2214,71
2214,451
2215,91
2215,475
2216,115
2216,490
2217,130
2217,486
2218,126
2218,481
2219,121
2219,481
2220,121
2220,499
2221,139
2221,529
2222,169
2222,532
2223,172
2223,526
2224,166
2224,529
2225,169
2225,532
2226,172
2226,550
2227,190
2227,581
2228,221
2228,603
2229,243
2229,598
2230,238
2230,600
2231,240
2231,624
2232,264
2232,642
2233,282
2233,661
2234,301
2234,677
2235,317
2235,677
2236,317
2236,667
2237,307
2237,675
2238,315
2239,344
2240,363
2241,352
2242,347
2243,345
2244,354
2245,358
2246,368
2247,386
2248,376
2249,373
2250,390
2251,414
2252,54
2252,437
2253,77
2253,446
2254,86
2254,455
2255,95
2255,459
2256,99
2256,484
2257,124
2257,515
2258,155
2258,532
2259,172
2259,533
2260,173
2260,532
2261,172
2261,533
2262,173
2262,561
2263,201
2263,592
2264,232
2264,603
2265,243
2265,598
2266,238
2266,600
2267,240
2267,613
2268,253
2268,614
2269,254
2269,630
2270,270
2270,629
2271,269
2271,607
2272,247
2272,573
2273,213
2273,551
2274,191
2274,564
2275,204
2275,568
2276,208
2276,561
2277,201
2277,563
2278,203
2278,552
2279,192
2279,538
2280,178
2280,542
2281,182
2281,552
2282,192
2282,565
2283,205
2283,551
2284,191
2284,529
2285,169
2285,540
2286,180
2286,567
2287,207
2287,575
2288,215
2288,593
2289,233
2289,592
2290,232
2290,585
2291,225
2291,594
2292,234
2292,606
2293,246
2293,624
2294,264
2294,632
2295,272
2295,618
2296,258
2296,576
2297,216
2297,550
2298,190
2298,548
2299,188
2299,552
2300,192
2300,570
2301,210
2301,570
2302,210
2302,556
2303,196
2303,573
2304,213
2304,597
2305,237
2305,614
2306,254
2306,622
2307,262
2307,610
2308,250
2308,602
2309,242
2309,586
2310,226
2310,573
2311,213
2311,553
2312,193
2312,545
2313,185
2313,527
2314,167
2314,504
2315,144
2315,488
2316,128
2316,486
2317,126
2317,476
2318,116
2318,454
2319,94
2319,422
2320,62
2320,393
2321,370
2322,365
2323,366
2324,370
2325,335
2325,648
2326,288
2326,610
2327,250
2327,580
2328,220
2328,571
2329,211
2329,561
2330,201
2330,540
2331,180
2331,515
2332,155
2332,483
2333,123
2333,441
2334,81
2334,426
2335,66
2335,420
2336,60
2336,416
2337,56
2337,383
2338,346
2338,678
2339,318
2339,657
2340,297
2340,645
2341,285
2341,629
2342,269
2342,604
2343,244
2343,582
2344,222
2344,553
2345,193
2345,525
2346,165
2346,516
2347,156
2347,524
2348,164
2348,525
2349,165
2349,502
2350,142
2350,485
2351,125
2351,471
2352,111
2352,453
2353,93
2353,443
2354,83
2354,433
2355,73
2355,420
2356,60
2356,397
2357,37
2357,377
2358,370
2359,368
2360,364
2361,350
2362,333
2362,670
2363,310
2363,655
2364,295
2364,642
2365,282
2365,638
2366,278
2366,640
2367,280
2367,628
2368,268
2368,608
2369,248
2369,597
2370,237
2370,584
2371,224
2371,569
2372,209
2372,553
2373,193
2373,525
2374,165
2374,497
2375,137
2375,487
2376,127
2376,499
2377,139
2377,505
2378,145
2378,519
2379,159
2379,520
2380,160
2380,518
2381,158
2381,514
2382,154
2382,543
2383,183
2383,575
2384,215
2384,577
2385,217
2385,585
2386,225
2386,589
2387,229
2387,593
2388,233
2388,608
2389,248
2389,639
2390,279
2390,661
2391,301
2391,655
2392,295
2392,671
2393,311
2394,326
2395,334
2396,342
2397,333
2397,672
2398,312
2398,655
2399,295
2399,647
2400,287
2400,674
2401,314
2401,647
2402,287
2403,341
2404,337
2405,329
2405,678
2406,318
2406,669
2407,309
2407,639
2408,279
2408,620
2409,260
2409,591
2410,231
2410,551
2411,191
2411,546
2412,186
2412,562
2413,202
2413,579
2414,219
2414,583
2415,223
2415,589
2416,229
2416,596
2417,236
2417,600
2418,240
2418,628
2419,268
2419,637
2420,277
2420,628
2421,268
2421,609
2422,249
2422,584
2423,224
2423,577
2424,217
2424,582
2425,222
2425,576
2426,216
2426,565
2427,205
2427,546
2428,186
2428,531
2429,171
2429,515
2430,155
2430,529
2431,169
2431,546
2432,186
2432,554
2433,194
2433,556
2434,196
2434,550
2435,190
2435,544
2436,184
2436,566
2437,206
2437,586
2438,226
2438,586
2439,226
2439,591
2440,231
2440,590
2441,230
2441,580
2442,220
2442,592
2443,232
2443,620
2444,260
2444,632
2445,272
2445,613
2446,253
2446,614
2447,254
2447,624
2448,264
2448,635
2449,275
2449,652
2450,292
2450,667
2451,307
2451,673
2452,313
2452,659
2453,299
2453,669
2454,309
2455,345
2456,363
2457,371
2458,372
2459,374
2460,383
2461,416
2462,56
2462,445
2463,85
2463,440
2464,80
2464,427
2465,67
2465,421
2466,61
2466,414
2467,54
2467,428
2468,68
2468,441
2469,81
2469,429
2470,69
2470,416
2471,56
2471,416
2472,56
2472,424
2473,64
2473,441
2474,81
2474,463
2475,103
2475,475
2476,115
2476,465
2477,105
2477,470
2478,110
2478,499
2479,139
2479,527
2480,167
2480,542
2481,182
2481,548
2482,188
2482,558
2483,198
2483,554
2484,194
2484,574
2485,214
2485,609
2486,249
2486,619
2487,259
2487,608
2488,248
2488,604
2489,244
2489,623
2490,263
2490,638
2491,278
2491,655
2492,295
2492,671
2493,311
2493,667
2494,307
2494,645
2495,285
2495,646
2496,286
2496,662
2497,302
2497,665
2498,305
2498,667
2499,307
2499,652
2500,292
2500,643
2501,283
2501,630
2502,270
2502,638
2503,278
2503,659
2504,299
2504,660
2505,300
2505,658
2506,298
2506,653
2507,293
2507,664
2508,304
2508,683
2509,323
2510,340
2511,353
2512,340
2513,345
2514,362
2515,382
2516,412
2517,52
2517,429
2518,69
2518,418
2519,58
2519,423
2520,63
2520,447
2521,87
2521,465
2522,105
2522,478
2523,118
2523,485
2524,125
2524,482
2525,122
2525,462
2526,102
2526,456
2527,96
2527,472
2528,112
2528,486
2529,126
2529,478
2530,118
2530,467
2531,107
2531,466
2532,106
2532,469
2533,109
2533,482
2534,122
2534,497
2535,137
2535,485
2536,125
2536,482
2537,122
2537,476
2538,116
2538,474
2539,114
2539,497
2540,137
2540,510
2541,150
2541,497
2542,137
2542,487
2543,127
2543,493
2544,133
2544,499
2545,139
2545,508
2546,148
2546,517
2547,157
2547,518
2548,158
2548,506
2549,146
2549,493
2550,133
2550,511
2551,151
2551,531
2552,171
2552,534
2553,174
2553,531
2554,171
2554,535
2555,175
2555,527
2556,167
2556,539
2557,179
2557,563
2558,203
2558,566
2559,206
2559,560
2560,200
2560,554
2561,194
2561,556
2562,196
2562,567
2563,207
2563,581
2564,221
2564,589
2565,229
2565,578
2566,218
2566,575
2567,215
2567,581
2568,221
2568,581
2569,221
2569,601
2570,241
2570,617
2571,257
2571,605
2572,245
2572,589
2573,229
2573,593
2574,233
2574,617
2575,257
2575,620
2576,260
2576,619
2577,259
2577,626
2578,266
2578,615
2579,255
2579,604
2580,244
2580,623
2581,263
2581,653
2582,293
2582,654
2583,294
2583,649
2584,289
2584,654
2585,294
2585,661
2586,301
2586,671
2587,311
2588,334
2589,344
2590,336
2591,338
2592,342
2593,366
2594,378
2595,387
2596,381
2597,369
2598,382
2599,398
2600,38
2600,405
2601,45
2601,406
2602,46
2602,400
2603,40
2603,392
2604,393
2605,425
2606,65
2606,429
2607,69
2607,426
2608,66
2608,428
2609,68
2609,414
2610,54
2610,414
2611,54
2611,433
2612,73
2612,438
2613,78
2613,433
2614,73
2614,425
2615,65
2615,414
2616,54
2616,419
2617,59
2617,437
2618,77
2618,453
2619,93
2619,443
2620,83
2620,435
2621,75
2621,432
2622,72
2622,428
2623,68
2623,430
2624,70
2624,438
2625,78
2625,429
2626,69
2626,415
2627,55
2627,407
2628,47
2628,430
2629,70
2629,445
2630,85
2630,447
2631,87
2631,463
2632,103
2632,458
2633,98
2633,452
2634,92
2634,467
2635,107
2635,465
2636,105
2636,469
2637,109
2637,445
2638,85
2638,398
2639,38
2639,370
2640,341
2641,337
2642,345
2643,353
2644,345
2645,341
2646,353
2647,382
2648,399
2649,39
2649,411
2650,51
2650,417
2651,57
2651,418
2652,58
2652,425
2653,65
2653,441
2654,81
2654,471
2655,111
2655,472
2656,112
2656,469
2657,109
2657,464
2658,104
2658,468
2659,108
2659,453
2659,494
2660,93
2660,134
2660,477
2661,117
2661,460
2662,100
2662,446
2663,86
2663,428
2664,68
2664,428
2665,68
2665,447
2666,87
2666,465
2667,105
2667,453
2668,93
2668,437
2669,77
2669,424
2670,64
2670,412
2671,52
2671,419
2672,59
2672,425
2673,65
2673,408
2674,48
2674,394
2675,383
2676,367
2677,370
2678,346
2678,665
2679,305
2679,612
2680,252
2680,563
2681,203
2681,514
2682,154
2682,484
2683,124
2683,462
2684,102
2684,432
2685,72
2685,424
2686,64
2686,408
2687,48
2687,399
2688,39
2688,396
2689,36
2689,418
2690,58
2690,440
2691,80
2691,440
2692,80
2692,427
2693,67
2693,427
2694,67
2694,438
2695,78
2695,460
2696,100
2696,464
2697,104
2697,469
2698,109
2698,461
2699,101
2699,448
2700,88
2700,454
2701,94
2701,472
2702,112
2702,481
2703,121
2703,472
2704,112
2704,455
2705,95
2705,455
2706,95
2706,462
2707,102
2707,467
2708,107
2708,472
2709,112
2709,457
2710,97
2710,411
2711,51
2711,364
2711,682
2712,322
2712,675
2713,315
2713,676
2714,316
2714,668
2715,308
2715,658
2716,298
2716,653
2717,293
2717,659
2718,299
2718,681
2719,321
2720,329
2721,345
2722,346
2723,357
2724,374
2725,392
2726,401
2727,41
2727,407
2728,47
2728,410
2729,50
2729,405
2730,45
2730,382
2731,389
2732,377
2733,345
2733,655
2734,295
2734,599
2735,239
2735,549
2736,189
2736,499
2737,139
2737,465
2738,105
2738,429
2739,69
2739,394
2740,349
2740,664
2741,304
2741,631
2742,271
2742,620
2743,260
2743,620
2744,260
2744,614
2745,254
2745,601
2746,241
2746,604
2747,244
2747,592
2748,232
2748,594
2749,234
2749,585
2750,225
2750,555
2751,195
2751,521
2752,161
2752,493
2753,133
2753,483
2754,123
2754,506
2755,146
2755,528
2756,168
2756,548
2757,188
2757,555
2758,195
2758,567
2759,207
2759,578
2760,218
2760,586
2761,226
2761,603
2762,243
2762,607
2763,247
2763,587
2764,227
2764,554
2765,194
2765,537
2766,177
2766,539
2767,179
2767,525
2768,165
2768,487
2769,127
2769,457
2770,97
2770,430
2771,70
2771,400
2772,40
2772,388
2773,388
2774,393
2775,370
2775,679
2776,319
2776,618
2777,258
2777,561
2778,201
2778,509
2779,149
2779,455
2780,95
2780,418
2781,58
2781,381
2782,361
2783,345
2784,351
2785,374
2786,378
2787,370
2788,339
2788,669
2789,309
2789,631
2790,271
2790,613
2791,253
2791,610
2792,250
2792,612
2793,252
2793,606
2794,246
2794,594
2795,234
2795,600
2796,240
2796,624
2797,264
2797,649
2798,289
2798,658
2799,298
2799,662
2800,302
2800,660
2801,300
2801,659
2802,299
2802,678
2803,318
2804,333
2805,340
2805,671
2806,311
2806,641
2807,281
2807,637
2808,277
2808,617
2809,257
2809,608
2810,248
2810,583
2811,223
2811,528
2812,168
2812,466
2813,106
2813,402
2814,42
2814,338
2814,667
2815,307
2815,659
2816,299
2816,634
2817,274
2817,590
2818,230
2818,542
2819,182
2819,513
2820,153
2820,515
2821,155
2821,533
2822,173
2822,556
2823,196
2823,573
2824,213
2824,581
2825,221
2825,596
2826,236
2826,629
2827,269
2827,664
2828,304
2828,677
2829,317
2829,656
2830,296
2830,653
2831,293
2831,650
2832,290
2832,648
2833,288
2833,652
2834,292
2834,650
2835,290
2835,643
2836,283
2836,628
2837,268
2837,620
2838,260
2838,638
2839,278
2839,638
2840,278
2840,634
2841,274
2841,623
2842,263
2842,620
2843,260
2843,621
2844,261
2844,632
2845,272
2845,653
2846,293
2846,653
2847,293
2847,642
2848,282
2848,634
2849,274
2849,636
2850,276
2850,644
2851,284
2851,646
2852,286
2852,645
2853,285
2853,645
2854,285
2854,624
2855,264
2855,612
2856,252
2856,625
2857,265
2857,640
2858,280
2858,634
2859,274
2859,614
2860,254
2860,596
2861,236
2861,599
2862,239
2862,584
2863,224
2863,555
2864,195
2864,541
2865,181
2865,508
2866,148
2866,476
2867,116
2867,441
2868,81
2868,427
2869,67
2869,444
2870,84
2870,436
2871,76
2871,426
2872,66
2872,414
2873,54
2873,404
2874,44
2874,405
2875,45
2875,420
2876,60
2876,437
2877,77
2877,435
2878,75
2878,427
2879,67
2879,420
2880,60
2880,407
2881,47
2881,414
2882,54
2882,395
2883,35
2883,356
2883,667
2884,307
2884,632
2885,272
2885,609
2886,249
2886,597
2887,237
2887,586
2888,226
2888,582
2889,222
2889,575
2890,215
2890,563
2891,203
2891,554
2892,194
2892,574
2893,214
2893,587
2894,227
2894,579
2895,219
2895,560
2896,200
2896,553
2897,193
2897,549
2898,189
2898,550
2899,190
2899,572
2900,212
2900,569
2901,209
2901,538
2902,178
2902,521
2903,161
2903,511
2904,151
2904,525
2905,165
2905,537
2906,177
2906,547
2907,187
2907,542
2908,182
2908,525
2909,165
2909,514
2910,154
2910,521
2911,161
2911,525
2912,165
2912,531
2913,171
2913,524
2914,164
2914,512
2915,152
2915,490
2916,130
2916,481
2917,121
2917,467
2918,107
2918,449
2919,89
2919,428
2920,68
2920,416
2921,56
2921,414
2922,54
2922,417
2923,57
2923,441
2924,81
2924,460
2925,100
2925,470
2926,110
2926,461
2927,101
2927,469
2928,109
2928,488
2929,128
2929,501
2930,141
2930,525
2931,165
2931,529
2932,169
2932,525
2933,165
2933,517
2934,157
2934,539
2935,179
2935,567
2936,207
2936,568
2937,208
2937,570
2938,210
2938,567
2939,207
2939,555
2940,195
2940,569
2941,209
2941,590
2942,230
2942,599
2943,239
2943,590
2944,230
2944,580
2945,220
2945,571
2946,211
2946,587
2947,227
2947,599
2948,239
2948,599
2949,239
2949,592
2950,232
2950,589
2951,229
2951,578
2952,218
2952,583
2953,223
2953,614
2954,254
2954,615
2955,255
2955,601
2956,241
2956,597
2957,237
2957,589
2958,229
2958,601
2959,241
2959,610
2960,250
2960,609
2961,249
2961,603
2962,243
2962,589
2963,229
2963,575
2964,215
2964,583
2965,223
2965,602
2966,242
2966,596
2967,236
2967,585
2968,225
2968,581
2969,221
2969,570
2970,210
2970,581
2971,221
2971,579
2972,219
2972,586
2973,226
2973,579
2974,219
2974,561
2975,201
2975,552
2976,192
2976,562
2977,202
2977,579
2978,219
2978,575
2979,215
2979,553
2980,193
2980,530
2981,170
2981,508
2982,148
2982,480
2983,120
2983,453
2984,93
2984,440
2985,80
2985,422
2986,62
2986,400
2987,40
2987,385
2988,380
2989,404
2990,44
2990,418
2991,58
2991,414
2992,54
2992,412
2993,52
2993,397
2994,37
2994,396
2995,36
2995,413
2996,53
2996,434
2997,74
2997,428
2998,68
2998,417
2999,57
2999,423
3000,63
3000,423
3001,63
3001,434
3002,74
3002,443
3003,83
3003,428
3004,68
3004,415
3005,55
3005,396
3006,36
3006,371
3007,373
3008,375
3009,363
3010,338
3011,331
3012,337
3013,344
3014,357
3015,371
3016,355
3017,338
3018,344
3019,367
3020,374
3021,361
3022,348
3023,334
3023,685
3024,325
3024,677
3025,317
3025,672
3026,312
3026,663
3027,303
3027,645
3028,285
3028,614
3029,254
3029,604
3030,244
3030,593
3031,233
3031,590
3032,230
3032,570
3033,210
3033,527
3034,167
3034,489
3035,129
3035,446
3036,86
3036,419
3037,59
3037,418
3038,58
3038,406
3039,46
3039,374
3040,346
3040,682
3041,322
3041,676
3042,316
3042,669
3043,309
3043,673
3044,313
3044,674
3045,314
3045,658
3046,298
3046,637
3047,277
3047,631
3048,271
3048,622
3049,262
3049,626
3050,266
3050,620
3051,260
3051,595
3052,235
3052,583
3053,223
3053,572
3054,212
3054,555
3055,195
3055,548
3056,188
3056,533
3057,173
3057,518
3058,158
3058,499
3059,139
3059,482
3060,122
3060,483
3061,123
3061,479
3062,119
3062,472
3063,112
3063,454
3064,94
3064,429
3065,69
3065,417
3066,57
3066,398
3067,38
3067,404
3068,44
3068,411
3069,51
3069,401
3070,41
3070,373
3071,349
3072,336
3073,335
3073,678
3074,318
3074,661
3075,301
3075,650
3076,290
3076,625
3077,265
3077,607
3078,247
3078,611
3079,251
3079,602
3080,242
3080,600
3081,240
3081,585
3082,225
3082,548
3083,188
3083,538
3084,178
3084,530
3085,170
3085,513
3086,153
3086,499
3087,139
3087,476
3088,116
3088,451
3089,91
3089,423
3090,63
3090,419
3091,59
3091,439
3092,79
3092,435
3093,75
3093,426
3094,66
3094,400
3095,40
3095,386
3096,381
3097,385
3098,379
3099,356
3099,679
3100,319
3100,647
3101,287
3101,634
3102,274
3102,624
3103,264
3103,624
3104,264
3104,610
3105,250
3105,572
3106,212
3106,551
3107,191
3107,533
3108,173
3108,522
3109,162
3109,527
3110,167
3110,520
3111,160
3111,511
3112,151
3112,491
3113,131
3113,473
3114,113
3114,476
3115,116
3115,477
3116,117
3116,478
3117,118
3117,468
3118,108
3118,462
3119,102
3119,456
3120,96
3120,436
3121,76
3121,436
3122,76
3122,437
3123,77
3123,422
3124,62
3124,390
3125,369
3126,372
3127,372
3128,381
3129,370
3130,353
3130,680
3131,320
3131,666
3132,306
3132,667
3133,307
3133,675
3134,315
3134,662
3135,302
3135,647
3136,287
3136,641
3137,281
3137,638
3138,278
3138,633
3139,273
3139,650
3140,290
3140,652
3141,292
3141,627
3142,267
3142,606
3143,246
3143,587
3144,227
3144,597
3145,237
3145,582
3146,222
3146,569
3147,209
3147,551
3148,191
3148,522
3149,162
3149,503
3150,143
3150,486
3151,126
3151,486
3152,126
3152,490
3153,130
3153,485
3154,125
3154,475
3155,115
3155,476
3156,116
3156,493
3157,133
3157,516
3158,156
3158,514
3159,154
3159,504
3160,144
3160,494
3161,134
3161,484
3162,124
3162,481
3163,121
3163,479
3164,119
3164,484
3165,124
3165,472
3166,112
3166,442
3167,82
3167,422
3168,62
3168,417
3169,57
3169,414
3170,54
3170,405
3171,45
3171,375
3172,340
3172,667
3173,307
3173,640
3174,280
3174,620
3175,260
3175,613
3176,253
3176,591
3177,231
3177,559
3178,199
3178,528
3179,168
3179,504
3180,144
3180,493
3181,133
3181,494
3182,134
3182,495
3183,135
3183,484
3184,124
3184,443
3185,83
3185,408
3186,48
3186,382
3187,361
3188,335
3188,650
3189,290
3189,590
3190,230
3190,548
3191,188
3191,499
3192,139
3192,457
3193,97
3193,423
3194,63
3194,390
3195,357
3195,677
3196,317
3196,641
3197,281
3197,600
3198,240
3198,587
3199,227
3199,571
3200,211
3200,545
3201,185
3201,500
3202,140
3202,443
3203,83
3203,403
3204,43
3204,376
3205,361
3206,368
3207,357
3208,328
3208,646
3209,286
3209,619
3210,259
3210,607
3211,247
3211,591
3212,231
3212,564
3213,204
3213,551
3214,191
3214,533
3215,173
3215,521
3216,161
3216,529
3217,169
3217,550
3218,190
3218,567
3219,207
3219,551
3220,191
3220,541
3221,181
3221,544
3222,184
3222,556
3223,196
3223,571
3224,211
3224,571
3225,211
3225,563
3226,203
3226,548
3227,188
3227,542
3228,182
3228,550
3229,190
3229,555
3230,195
3230,549
3231,189
3231,546
3232,186
3232,533
3233,173
3233,526
3234,166
3234,533
3235,173
3235,544
3236,184
3236,563
3237,203
3237,559
3238,199
3238,550
3239,190
3239,534
3240,174
3240,543
3241,183
3241,557
3242,197
3242,554
3243,194
3243,540
3244,180
3244,532
3245,172
3245,522
3246,162
3246,523
3247,163
3247,532
3248,172
3248,544
3249,184
3249,536
3250,176
3250,518
3251,158
3251,519
3252,159
3252,532
3253,172
3253,533
3254,173
3254,538
3255,178
3255,513
3256,153
3256,499
3257,139
3257,482
3258,122
3258,474
3259,114
3259,461
3260,101
3260,457
3261,97
3261,445
3262,85
3262,433
3263,73
3263,413
3264,53
3264,421
3265,61
3265,440
3266,80
3266,448
3267,88
3267,448
3268,88
3268,443
3269,83
3269,425
3270,65
3270,398
3271,38
3271,385
3272,393
3273,383
3274,377
3275,382
3276,390
3277,408
3278,48
3278,426
3279,66
3279,430
3280,70
3280,416
3280,654
3281,56
3281,294
3282,393
3283,424
3284,64
3284,435
3285,75
3285,438
3286,78
3286,433
3287,73
3287,435
3288,75
3288,446
3289,86
3289,457
3290,97
3290,459
3291,99
3291,449
3292,89
3292,437
3293,77
3293,441
3294,81
3294,472
3295,112
3295,511
3296,151
3296,537
3297,177
3297,560
3298,200
3298,560
3299,200
3299,547
3300,187
3300,563
3301,203
3301,585
3302,225
3302,596
3303,236
3303,577
3304,217
3304,569
3305,209
3305,576
3306,216
3306,585
3307,225
3307,585
3308,225
3308,592
3309,232
3309,597
3310,237
3310,580
3311,220
3311,566
3312,206
3312,587
3313,227
3313,607
3314,247
3314,604
3315,244
3315,596
3316,236
3316,595
3317,235
3317,605
3318,245
3318,616
3319,256
3319,635
3320,275
3320,653
3321,293
3321,636
3322,276
3322,616
3323,256
3323,615
3324,255
3324,637
3325,277
3325,650
3326,290
3326,655
3327,295
3327,662
3328,302
3328,664
3329,304
3329,662
3330,302
3331,328
3332,352
3333,358
3334,342
3334,684
3335,324
3335,682
3336,322
3336,684
3337,324
3338,331
3339,331
3339,672
3340,312
3340,665
3341,305
3341,666
3342,306
3342,675
3343,315
3343,685
3344,325
3345,331
3345,678
3346,318
3346,653
3347,293
3347,657
3348,297
3348,670
3349,310
3349,672
3350,312
3350,672
3351,312
3351,672
3352,312
3352,663
3353,303
3353,657
3354,297
3354,674
3355,314
3356,334
3356,685
3357,325
3357,669
3358,309
3358,672
3359,312
3359,670
3360,310
3360,676
3361,316
3362,330
3362,681
3363,321
3363,643
3364,283
3364,590
3365,230
3365,556
3366,196
3366,563
3367,203
3367,575
3368,215
3368,571
3369,211
3369,567
3370,207
3370,571
3371,211
3371,566
3372,206
3372,571
3373,211
3373,597
3374,237
3374,618
3375,258
3375,608
3376,248
3376,606
3377,246
3377,617
3378,257
3378,635
3379,275
3379,646
3380,286
3380,656
3381,296
3381,665
3382,305
3382,651
3383,291
3383,645
3384,285
3384,665
3385,305
3385,684
3386,324
3386,679
3387,319
3387,669
3388,309
3388,669
3389,309
3389,673
3390,313
3390,671
3391,311
3391,683
3392,323
3393,329
3393,680
3394,320
3394,659
3395,299
3395,655
3396,295
3396,682
3397,322
3398,332
3399,328
3399,679
3400,319
3400,657
3401,297
3401,638
3402,278
3402,631
3403,271
3403,637
3404,277
3404,642
3405,282
3405,624
3406,264
3406,612
3407,252
3407,615
3408,255
3408,638
3409,278
3409,662
3410,302
3410,671
3411,311
3411,673
3412,313
3412,670
3413,310
3413,655
3414,295
3414,666
3415,306
3416,328
3417,343
3418,340
3419,336
3420,349
3421,366
3422,381
3423,391
3424,386
3425,390
3426,387
3427,402
3428,42
3428,421
3429,61
3429,417
3430,57
3430,400
3431,40
3431,387
3432,399
3433,39
3433,413
3434,53
3434,419
3435,59
3435,429
3436,69
3436,405
3437,45
3437,389
3438,388
3439,407
3440,47
3440,411
3441,51
3441,407
3442,47
3442,399
3443,39
3443,396
3444,36
3444,388
3445,398
3446,38
3446,410
3447,50
3447,390
3448,361
3449,333
3449,661
3450,301
3450,645
3451,285
3451,623
3452,263
3452,597
3453,237
3453,575
3454,215
3454,551
3455,191
3455,545
3456,185
3456,543
3457,183
3457,557
3458,197
3458,574
3459,214
3459,567
3460,207
3460,557
3461,197
3461,559
3462,199
3462,586
3463,226
3463,597
3464,237
3464,605
3465,245
3465,612
3466,252
3466,591
3467,231
3467,578
3468,218
3468,585
3469,225
3469,589
3470,229
3470,588
3471,228
3471,572
3472,212
3472,562
3473,202
3473,555
3474,195
3474,561
3475,201
3475,566
3476,206
3476,563
3477,203
3477,556
3478,196
3478,531
3479,171
3479,505
3480,145
3480,504
3481,144
3481,508
3482,148
3482,492
3483,132
3483,467
3484,107
3484,448
3485,88
3485,420
3486,60
3486,415
3487,55
3487,420
3488,60
3488,434
3489,74
3489,417
3490,57
3490,392
3491,365
3492,335
3492,677
3493,317
3493,670
3494,310
3494,658
3495,298
3495,637
3496,277
3496,629
3497,269
3497,633
3498,273
3498,659
3499,299
3499,680
3500,320
3501,342
3502,336
3503,326
3504,339
3505,348
3506,347
3507,342
3508,334
3509,327
3510,329
3511,332
3512,349
3513,349
3514,334
3515,328
3516,335
3517,354
3518,352
3519,363
3520,359
3521,348
3522,344
3523,359
3524,383
3525,377
3526,362
3527,367
3528,370
3529,379
3530,390
3531,402
3532,42
3532,379
3533,357
3534,360
3535,368
3536,351
3537,333
3537,672
3538,312
3538,650
3539,290
3539,628
3540,268
3540,630
3541,270
3541,650
3542,290
3542,651
3543,291
3543,634
3544,274
3544,622
3545,262
3545,613
3546,253
3546,605
3547,245
3547,601
3548,241
3548,593
3549,233
3549,583
3550,223
3550,570
3551,210
3551,564
3552,204
3552,582
3553,222
3553,603
3554,243
3554,625
3555,265
3555,622
3556,262
3556,620
3557,260
3557,614
3558,254
3558,623
3559,263
3559,644
3560,284
3560,652
3561,292
3561,652
3562,292
3562,646
3563,286
3563,649
3564,289
3564,678
3565,318
3566,328
3567,329
3567,685
3568,325
3569,328
3570,339
3571,362
3572,376
3573,376
3574,354
3575,336
3575,679
3576,319
3576,669
3577,309
3577,638
3578,278
3578,614
3579,254
3579,594
3580,234
3580,586
3581,226
3581,567
3582,207
3582,569
3583,209
3583,584
3584,224
3584,596
3585,236
3585,577
3586,217
3586,552
3587,192
3587,556
3588,196
3588,572
3589,212
3589,576
3590,216
3590,582
3591,222
3591,580
3592,220
3592,587
3593,227
3593,589
3594,229
3594,612
3595,252
3595,635
3596,275
3596,629
3597,269
3597,618
3598,258
3598,611
3599,251
3599,621
3600,261
3600,635
3601,275
3601,649
3602,289
3602,654
3603,294
3603,651
3604,291
3604,647
3605,287
3605,644
3606,284
3606,652
3607,292
3607,671
3608,117
3608,411
3609,51
3609,338
3609,629
3610,269
3610,585
3611,225
3611,534
3612,174
3612,471
3613,111
3613,402
3614,42
3614,329
3614,642
3615,282
3615,553
3616,193
3616,494
3617,134
3617,452
3618,92
3618,398
3619,38
3619,330
3619,619
3620,259
3620,546
3621,186
3621,485
3622,125
3622,426
3623,66
3623,368
3623,684
3624,324
3624,621
3625,261
3625,545
3626,185
3626,472
3627,112
3627,402
3628,42
3628,350
3628,657
3629,297
3629,600
3630,240
3630,553
3631,193
3631,484
3632,124
3632,403
3633,43
3633,333
3633,631
3634,271
3634,581
3635,221
3635,525
3636,165
3636,463
3637,103
3637,405
3638,45
3638,351
3638,615
3639,255
3639,550
3640,190
3640,498
3641,138
3641,451
3642,91
3642,393
3643,327
3643,623
3644,263
3644,571
3645,211
3645,478
3646,118
3646,418
3647,58
3647,369
3647,679
3648,319
3648,614
3649,254
3649,541
3650,181
3650,500
3651,140
3651,411
3652,51
3652,344
3652,652
3653,292
3653,603
3654,243
3654,548
3655,188
3655,473
3656,113
3656,400
3657,40
3657,340
3657,635
3658,275
3658,573
3659,213
3659,519
3660,159
3660,465
3661,105
3661,400
3662,40
3662,326
3662,616
3663,256
3663,559
3664,199
3664,503
3665,143
3665,445
3666,85
3666,389
3667,328
3667,617
3668,257
3668,543
3669,183
3669,475
3670,115
3670,425
3671,65
3671,371
3671,671
3672,311
3672,608
3673,248
3673,544
3674,184
3674,474
3675,114
3675,402
3676,42
3676,345
3676,659
3677,299
3677,602
3678,242
3678,537
3679,177
3679,465
3680,105
3680,398
3681,38
3681,328
3681,619
3682,259
3682,571
3683,211
3683,523
3683,561
3684,163
3684,201
3684,461
3684,496
3685,101
3685,136
3685,394
3686,331
3687,551
3688,191
3688,477
3689,117
3689,423
3690,63
3690,361
3690,641
3691,281
3691,560
3692,200
3692,476
3693,116
3693,399
3694,39
3694,329
3694,626
3695,266
3695,563
3696,203
3696,501
3697,141
3697,426
3698,66
3698,334
3698,610
3699,250
3699,538
3700,178
3700,475
3701,115
3701,404
3701,580
3702,44
3702,220
3702,535
3703,175
3703,467
3704,107
3704,390
3704,679
3705,319
3705,617
3706,257
3706,568
3707,208
3707,514
3708,154
3708,452
3709,92
3709,395
3709,431
3709,683
3710,35
3710,71
3710,323
3710,353
3710,607
3711,247
3711,540
3712,180
3712,495
3713,135
3714,381
3714,664
3715,304
3715,597
3716,237
3716,521
3717,161
3717,443
3718,83
3718,378
3718,681
3719,321
3719,629
3720,269
3720,560
3721,200
3721,477
3722,117
3722,410
3723,50
3723,333
3723,614
3724,254
3724,557
3725,197
3725,497
3726,137
3726,437
3727,77
3727,363
3727,641
3728,281
3728,568
3729,208
3729,497
3730,137
3730,432
3731,72
3731,371
3731,666
3732,306
3732,604
3733,244
3733,522
3734,162
3734,439
3735,79
3735,369
3735,661
3736,301
3736,600
3737,240
3737,539
3738,179
3738,469
3739,109
3739,402
3739,681
3740,42
3740,321
3740,597
3741,237
3741,526
3742,166
3742,469
3743,109
3743,404
3744,44
3744,333
3744,620
3745,260
3745,539
3746,179
3746,463
3747,103
3747,379
3747,662
3748,302
3748,614
3749,254
3749,553
3750,193
3750,478
3751,118
3751,403
3751,681
3752,43
3752,321
3752,602
3753,242
3753,525
3754,165
3754,452
3755,92
3755,399
3756,39
3756,335
3756,614
3757,254
3757,534
3758,174
3758,452
3759,92
3759,373
3759,660
3760,300
3760,596
3761,236
3761,539
3762,179
3762,472
3763,112
3763,393
3763,669
3764,309
3764,583
3765,223
3765,515
3766,155
3766,450
3767,90
3767,381
3767,683
3768,323
3768,615
3769,255
3769,530
3770,170
3770,446
3771,86
3771,365
3771,657
3772,297
3772,599
3773,239
3773,534
3774,174
3774,465
3775,105
3775,395
3775,672
3776,35
3776,312
3776,583
3777,223
3777,509
3778,149
3778,447
3779,87
3779,388
3779,683
3780,323
3780,611
3781,251
3781,546
3781,582
3782,186
3782,222
3782,474
3783,114
3783,399
3784,39
3784,339
3784,651
3785,291
3785,603
3786,243
3786,540
3787,180
3787,468
3788,108
3788,404
3789,44
3789,334
3789,622
3790,262
3790,565
3791,205
3791,517
3792,157
3792,463
3793,103
3793,391
3793,680
3794,320
3794,618
3795,258
3795,553
3796,193
3796,493
3797,133
3797,439
3798,79
3798,388
3798,684
3799,324
3799,608
3800,248
3800,537
3801,177
3801,474
3802,114
3802,414
3803,54
3803,358
3803,662
3804,302
3804,604
3805,244
3805,537
3806,177
3806,463
3807,103
3807,397
3808,37
3808,343
3808,647
3809,287
3809,590
3810,230
3810,529
3811,169
3811,464
3812,104
3812,393
3812,679
3813,319
3813,618
3814,258
3814,571
3815,211
3815,513
3816,153
3816,454
3817,94
3817,387
3817,681
3818,321
3818,610
3819,250
3819,541
3820,181
3820,491
3821,131
3821,441
3822,81
3822,380
3822,675
3823,315
3823,602
3824,242
3824,535
3825,175
3825,466
3826,106
3826,404
3827,44
3827,360
3827,669
3828,309
3828,604
3829,244
3829,535
3830,175
3830,482
3831,122
3831,398
3832,38
3832,337
3832,638
3833,278
3833,592
3834,232
3834,535
3835,175
3835,459
3836,99
3836,387
3836,677
3837,317
3837,622
3838,262
3838,567
3839,207
3839,509
3840,149
3840,464
3841,104
3841,398
3842,38
3842,341
3842,609
3843,249
3843,543
3844,183
3844,493
3845,133
3845,437
3846,77
3846,376
3846,680
3847,320
3847,610
3848,250
3848,554
3849,194
3849,467
3850,107
3850,412
3851,52
3851,367
3851,670
3852,310
3852,603
3853,243
3853,541
3854,181
3854,469
3855,109
3855,395
3856,35
3856,333
3856,640
3857,280
3857,594
3858,234
3858,530
3859,170
3859,455
3860,95
3860,394
3861,326
3861,618
3862,258
3862,564
3863,204
3863,511
3864,151
3864,460
3865,100
3865,388
3865,671
3866,311
3866,609
3867,249
3867,542
3868,182
3868,479
3869,119
3869,426
3870,66
3870,373
3870,673
3871,313
3871,600
3872,240
3872,527
3873,167
3873,468
3874,108
3874,411
3875,51
3875,352
3875,656
3876,296
3876,597
3877,237
3877,529
3878,169
3878,453
3879,93
3879,382
3880,330
3880,639
3880,673
3881,279
3881,313
3881,576
3881,607
3882,216
3882,247
3882,516
3883,156
3883,452
3884,92
3884,383
3884,670
3885,310
3885,608
3886,248
3886,561
3887,201
3887,506
3888,146
3888,443
3889,83
3889,373
3889,664
3890,304
3890,594
3891,234
3891,524
3892,164
3892,472
3893,112
3893,425
3894,65
3894,368
3894,662
3895,302
3895,590
3896,230
3896,523
3897,163
3897,456
3898,96
3898,395
3899,35
3899,346
3899,655
3900,295
3900,609
3901,249
3901,516
3902,156
3902,462
3903,102
3903,379
3903,680
3904,320
3904,624
3905,264
3905,577
3906,217
3906,522
3907,162
3907,448
3908,88
3908,374
3908,663
3909,303
3909,605
3910,245
3910,549
3911,189
3911,491
3912,131
3912,441
3913,81
3913,375
3913,658
3914,298
3914,588
3915,228
3915,523
3916,163
3916,475
3917,115
3917,422
3918,62
3918,362
3918,665
3919,305
3919,595
3920,235
3920,518
3921,158
3921,451
3922,91
3922,391
3923,345
3923,650
3924,290
3924,581
3925,221
3925,520
3925,559
3926,160
3926,199
3926,452
3927,92
3927,377
3928,334
3928,641
3929,281
3929,580
3930,220
3930,517
3931,157
3931,442
3932,82
3932,378
3932,670
3933,310
3933,601
3934,241
3934,546
3935,186
3935,494
3936,134
3936,441
3937,81
3937,676
3938,316
3938,615
3939,255
3939,532
3940,172
3940,472
3941,112
3941,419
3942,59
3942,364
3942,664
3943,304
3943,589
3944,229
3944,512
3945,152
3945,453
3946,93
3946,396
3947,36
3947,340
3947,644
3948,284
3948,583
3949,223
3950,466
3951,106
3951,373
3951,683
3952,323
3952,629
3953,269
3953,568
3954,208
3954,507
3955,147
3955,437
3956,77
3956,655
3957,295
3957,590
3958,230
3958,546
3959,186
3959,493
3960,133
3960,430
3961,70
3961,364
3961,655
3962,295
3962,605
3963,245
3963,518
3964,158
3964,462
3965,102
3965,416
3966,56
3966,359
3966,649
3967,289
3967,575
3968,215
3968,507
3969,147
3969,441
3970,81
3970,381
3971,331
3971,645
3972,285
3972,584
3973,224
3973,507
3974,147
3974,433
3975,73
3975,368
3975,668
3976,308
3976,610
3977,250
3977,559
3978,199
3978,506
3979,146
3979,433
3980,73
3980,357
3980,646
3981,286
3981,589
3982,229
3982,536
3983,176
3983,479
3984,119
3984,427
3985,67
3985,364
3985,647
3986,287
3986,573
3987,213
3987,506
3988,146
3988,455
3989,95
3989,404
3990,44
3990,345
3990,644
3991,284
3991,577
3992,217
3992,502
3993,142
3993,434
3994,74
3994,377
3995,333
3995,638
3996,278
3996,571
3997,211
3997,507
3998,147
3998,456
3999,96
3999,382
3999,658
4000,298
4000,605
4001,245
4001,557
4002,197
4002,496
4003,136
4003,423
4004,63
4004,360
4004,651
4005,291
4005,585
4006,225
4006,533
4007,173
4007,480
4008,120
4008,429
4009,69
4009,359
4009,641
4010,281
4010,578
4011,218
4011,513
4012,153
4012,452
4013,92
4013,402
4014,42
4014,347
4014,670
4015,310
4015,578
4016,218
4016,500
4017,140
4017,443
4018,83
4018,387
4019,328
4019,634
4020,274
4020,572
4021,212
4021,507
4022,147
4022,450
4023,90
4023,356
4023,666
4024,306
4024,616
4025,256
4025,557
4026,197
4026,499
4027,139
4027,432
4028,72
4028,364
4028,649
4029,289
4029,582
4030,222
4030,539
4031,179
4031,485
4032,125
4032,422
4033,62
4033,354
4033,641
4034,281
4034,574
4035,214
4035,528
4036,168
4036,449
4037,89
4037,409
4038,49
4038,354
4038,644
4039,284
4039,570
4040,210
4040,500
4041,140
4041,437
4042,77
4042,376
4042,682
4043,322
4043,636
4044,276
4044,572
4045,212
4045,493
4046,133
4046,420
4047,60
4047,354
4047,656
4048,296
4048,602
4049,242
4049,551
4050,191
4050,498
4051,138
4051,426
4052,66
4052,348
4052,637
4053,277
4053,579
4054,219
4054,524
4055,164
4055,467
4056,107
4056,414
4057,54
4057,371
4057,636
4058,276
4058,564
4059,204
4059,497
4060,137
4060,450
4061,90
4061,399
4062,39
4062,337
4062,639
4063,279
4063,570
4064,210
4064,493
4065,133
4065,423
4066,63
4066,362
4066,677
4067,317
4067,622
4068,262
4068,553
4069,193
4069,493
4070,133
4070,426
4071,66
4071,352
4071,651
4072,291
4072,598
4073,238
4073,550
4074,190
4074,488
4075,128
4075,412
4076,52
4076,348
4076,639
4077,279
4077,569
4078,209
4078,515
4079,155
4079,462
4080,102
4080,413
4081,53
4081,346
4081,629
4082,269
4082,567
4083,207
4083,503
4084,143
4084,443
4085,83
4085,389
4086,333
4086,636
4087,276
4087,562
4088,202
4088,504
4089,144
4089,426
4090,66
4090,368
4090,669
4091,309
4091,615
4092,255
4092,555
4093,195
4093,491
4094,131
4094,417
4095,57
4095,343
4095,652
4096,292
4096,597
4097,237
4097,537
4098,177
4098,478
4099,118
4099,410
4100,50
4100,341
4100,628
4101,268
4101,562
4102,202
4102,519
4103,159
4103,468
4104,108
4104,406
4105,46
4105,340
4105,630
4106,270
4106,562
4107,202
4107,493
4108,133
4108,434
4109,74
4109,392
4110,337
4110,624
4111,264
4111,551
4112,191
4112,483
4113,123
4114,357
4114,669
4115,309
4115,624
4116,264
4116,561
4117,201
4117,484
4118,124
4118,411
4119,51
4119,345
4119,644
4120,284
4120,586
4121,226
4121,535
4122,175
4122,502
4123,142
4123,410
4124,50
4124,336
4124,624
4125,264
4125,567
4126,207
4126,515
4127,155
4127,459
4128,99
4128,407
4129,47
4129,344
4129,626
4130,266
4130,552
4131,192
4131,484
4132,124
4132,434
4133,74
4133,382
4133,682
4134,322
4134,624
4135,264
4135,557
4136,197
4136,481
4137,121
4137,413
4138,53
4138,355
4138,669
4139,309
4139,613
4140,253
4140,545
4141,185
4141,483
4142,123
4142,411
4143,51
4143,335
4143,633
4144,273
4144,580
4145,220
4145,533
4146,173
4146,472
4147,112
4147,400
4148,40
4148,338
4148,629
4149,269
4149,561
4150,201
4150,507
4151,147
4151,453
4152,93
4152,404
4153,44
4153,334
4153,614
4154,254
4154,552
4155,192
4155,488
4156,128
4156,424
4157,64
4157,372
4157,678
4158,318
4158,622
4159,262
4160,472
4161,112
4161,414
4162,54
4162,356
4162,656
4163,296
4163,600
4164,240
4164,540
4165,180
4165,473
4166,113
4167,326
4167,634
4168,274
4168,581
4169,221
4169,522
4170,162
4170,463
4171,103
4171,399
4172,39
4172,617
4173,257
4173,552
4174,192
4174,526
4175,166
4175,451
4176,91
4176,389
4176,680
4177,320
4177,612
4178,252
4179,475
4180,115
4180,422
4181,62
4181,378
4182,340
4182,613
4183,253
4183,541
4184,181
4184,383
4184,684
4185,324
4185,620
4186,260
4186,564
4187,204
4187,520
4188,160
4188,461
4189,101
4189,387
4189,674
4190,314
4190,608
4191,248
4191,547
4192,187
4192,491
4193,131
4193,439
4194,79
4194,389
4194,683
4195,323
4195,605
4196,245
4196,531
4197,171
4197,469
4198,109
4198,413
4199,53
4199,357
4199,664
4200,304
4200,609
4201,249
4201,538
4202,178
4202,461
4203,101
4203,392
4204,340
4204,649
4205,289
4205,589
4206,229
4206,534
4207,174
4207,468
4208,108
4208,392
4208,678
4209,318
4209,614
4210,254
4210,566
4211,206
4211,514
4212,154
4212,452
4213,92
4213,391
4213,683
4214,323
4214,608
4215,248
4215,544
4216,184
4216,488
4217,128
4217,441
4218,81
4218,385
4218,674
4219,314
4219,606
4220,246
4220,537
4221,177
4221,465
4222,105
4222,408
4223,48
4223,357
4223,670
4224,310
4224,607
4225,247
4225,531
4226,171
4226,468
4227,108
4227,401
4228,41
4228,336
4228,643
4229,283
4229,610
4230,250
4230,532
4231,172
4231,459
4232,99
4232,380
4232,681
4233,321
4233,619
4234,259
4234,562
4235,202
4235,532
4236,172
4236,454
4237,94
4237,392
4237,675
4238,315
4238,599
4239,239
4239,545
4240,185
4240,490
4241,130
4241,431
4242,71
4242,374
4242,669
4243,309
4243,601
4244,241
4244,527
4245,167
4245,456
4246,96
4246,413
4247,53
4247,363
4247,658
4248,298
4248,595
4249,235
4249,527
4250,167
4250,459
4251,99
4251,385
4251,684
4252,324
4252,641
4253,281
4253,586
4254,226
4254,518
4255,158
4255,447
4256,87
4256,379
4256,672
4257,312
4257,607
4258,247
4258,557
4259,197
4259,511
4260,151
4260,450
4261,90
4261,682
4262,322
4262,594
4263,234
4263,531
4264,171
4264,473
4265,113
4265,422
4266,62
4266,373
4266,665
4267,305
4267,591
4268,231
4268,519
4269,159
4269,458
4270,98
4270,405
4271,45
4271,348
4271,657
4272,297
4272,599
4273,239
4273,522
4274,162
4274,447
4275,87
4275,376
4275,681
4276,321
4276,629
4277,269
4277,572
4278,212
4278,518
4279,158
4279,451
4280,91
4280,375
4280,667
4281,307
4281,605
4282,245
4282,558
4283,198
4283,504
4284,144
4284,441
4285,81
4285,379
4285,668
4286,308
4286,592
4287,232
4287,528
4288,168
4288,473
4289,113
4289,429
4290,69
4290,373
4290,662
4291,302
4291,599
4292,239
4292,530
4293,170
4293,457
4294,97
4294,401
4295,41
4295,348
4295,659
4296,299
4296,593
4297,233
4297,515
4298,155
4298,455
4299,95
4299,387
4299,682
4300,322
4300,632
4301,272
4301,579
4302,219
4302,524
4303,164
4303,471
4304,111
4304,375
4304,675
4305,315
4305,613
4306,253
4306,554
4307,194
4307,500
4308,140
4308,442
4309,82
4309,378
4309,663
4310,303
4310,588
4311,228
4311,534
4312,174
4312,480
4313,120
4313,424
4314,64
4314,367
4314,664
4315,304
4315,597
4316,237
4316,521
4317,161
4317,451
4318,91
4318,404
4319,44
4319,350
4319,646
4320,286
4320,581
4321,221
4321,534
4322,174
4322,446
4323,86
4323,375
4323,675
4324,315
4324,633
4325,273
4325,577
4326,217
4326,510
4327,150
4327,440
4328,80
4328,372
4328,663
4329,303
4329,596
4330,236
4330,544
4331,184
4331,496
4332,136
4332,437
4333,77
4333,367
4333,654
4334,294
4334,610
4335,250
4335,527
4336,167
4336,468
4337,108
4337,419
4338,59
4338,368
4338,660
4339,300
4339,584
4340,224
4340,510
4341,150
4341,449
4342,89
4342,390
4343,331
4343,645
4344,285
4344,586
4345,226
4345,512
4346,152
4346,441
4347,81
4347,372
4347,678
4348,318
4348,624
4349,264
4349,564
4350,204
4350,512
4351,152
4351,443
4352,83
4352,365
4352,655
4353,295
4353,590
4354,230
4354,545
4355,185
4355,492
4356,132
4356,430
4357,70
4357,372
4357,662
4358,302
4358,586
4359,226
4359,522
4360,162
4360,466
4361,106
4361,421
4362,61
4362,363
4362,651
4363,291
4363,589
4364,229
4364,517
4365,157
4365,442
4366,82
4366,385
4367,335
4367,646
4368,286
4368,583
4369,223
4369,509
4370,149
4370,446
4371,86
4371,395
4371,669
4372,35
4372,309
4372,616
4373,256
4373,563
4374,203
4374,508
4375,148
4375,435
4376,75
4376,360
4376,660
4377,300
4377,598
4378,238
4378,540
4379,180
4379,487
4380,127
4380,435
4381,75
4381,371
4381,655
4382,295
4382,581
4383,221
4383,527
4384,167
4384,471
4385,111
4385,409
4386,49
4386,353
4386,652
4387,292
4387,582
4388,222
4389,442
4390,82
4390,395
4391,35
4391,342
4391,641
4392,281
4392,578
4393,218
4393,512
4394,152
4394,439
4395,79
4395,365
4395,669
4396,309
4396,621
4397,261
4397,565
4398,205
4398,502
4399,142
4399,431
4400,71
4400,366
4400,657
4401,297
4401,592
4402,232
4402,545
4403,185
4403,495
4404,135
4404,433
4405,73
4405,364
4405,649
4406,289
4406,584
4407,224
4407,520
4408,160
4408,457
4409,97
4409,412
4410,52
4410,360
4410,650
4411,290
4411,580
4412,220
4412,508
4413,148
4413,447
4414,87
4414,389
4415,329
4415,644
4416,284
4416,582
4417,222
4417,505
4418,145
4418,433
4419,73
4419,363
4419,669
4420,309
4420,613
4421,253
4421,556
4422,196
4422,507
4423,147
4423,440
4424,80
4424,363
4424,653
4425,293
4425,591
4426,231
4426,543
4427,183
4427,487
4428,127
4428,424
4429,64
4429,367
4429,655
4430,295
4430,576
4431,216
4431,527
4432,167
4432,457
4433,97
4433,410
4434,50
4434,352
4434,646
4435,286
4435,586
4436,226
4436,512
4437,152
4437,437
4438,77
4438,378
4439,328
4439,655
4440,295
4440,569
4441,209
4441,498
4442,138
4442,433
4443,73
4443,362
4443,657
4444,297
4444,605
4445,245
4445,558
4446,198
4446,501
4447,141
4447,448
4448,88
4448,360
4448,654
4449,294
4449,588
4450,228
4450,530
4451,170
4451,476
4452,116
4452,425
4453,65
4453,359
4453,642
4454,282
4454,577
4455,217
4455,517
4456,157
4456,457
4457,97
4457,404
4458,44
4458,348
4458,649
4459,289
4459,576
4460,216
4460,499
4461,139
4461,437
4462,77
4462,381
4462,684
4463,324
4463,630
4464,270
4464,568
4465,208
4465,504
4466,144
4466,432
4467,72
4467,377
4467,667
4468,307
4468,618
4469,258
4469,559
4470,199
4470,500
4471,140
4471,430
4472,70
4472,363
4472,650
4473,290
4473,581
4474,221
4474,537
4475,177
4475,487
4476,127
4476,424
4477,64
4477,359
4477,648
4478,288
4478,584
4479,224
4479,515
4480,155
4480,456
4481,96
4481,415
4482,55
4482,359
4482,648
4483,288
4483,575
4484,215
4484,503
4485,143
4485,439
4486,79
4486,377
4486,681
4487,321
4487,639
4488,279
4488,577
4489,217
4489,522
4490,162
4490,430
4491,70
4491,362
4491,666
4492,306
4492,612
4493,252
4493,555
4494,195
4494,505
4495,145
4495,434
4496,74
4496,354
4496,642
4497,282
4497,605
4498,245
4498,535
4499,175
4499,481
4500,121
4500,424
4501,64
4501,364
4501,651
4502,291
4502,572
4503,212
4503,505
4504,145
4504,456
4505,96
4505,403
4506,43
4506,364
4506,642
4507,282
4507,574
4508,214
4508,497
4509,137
4509,428
4510,68
4510,371
4511,327
4511,633
4512,273
4512,567
4513,207
4513,501
4514,141
4514,431
4515,71
4515,358
4515,657
4516,297
4516,603
4517,243
4517,556
4518,196
4518,495
4519,135
4519,419
4520,59
4520,354
4520,649
4521,289
4521,582
4522,222
4522,530
4523,170
4523,477
4524,117
4524,427
4525,67
4525,357
4525,637
4526,277
4526,576
4527,216
4527,513
4528,153
4528,452
4529,92
4529,398
4530,38
4530,342
4530,643
4531,283
4531,569
4532,209
4532,493
4533,133
4533,436
4534,76
4534,380
4534,683
4535,323
4535,627
4536,267
4536,564
4537,204
4537,499
4538,139
4538,443
4539,83
4539,351
4539,659
4540,299
4540,607
4541,247
4541,549
4542,189
4542,488
4543,128
4543,421
4544,61
4544,357
4544,644
4545,284
4545,580
4546,220
4546,537
4547,177
4547,481
4548,121
4548,435
4549,75
4549,347
4549,636
4550,276
4550,567
4551,207
4551,499
4552,139
4552,443
4553,83
4553,399
4554,39
4554,343
4554,635
4555,275
4555,583
4556,223
4556,497
4557,137
4557,431
4558,71
4558,370
4558,680
4559,320
4559,631
4560,271
4560,566
4561,206
4561,491
4562,131
4562,417
4563,57
4563,354
4563,654
4564,294
4564,599
4565,239
4565,551
4566,191
4566,517
4567,157
4567,426
4568,66
4568,352
4568,638
4569,278
4569,583
4570,223
4570,528
4571,168
4571,469
4572,109
4572,419
4573,59
4573,355
4573,656
4574,296
4574,565
4575,205
4575,499
4576,139
4576,451
4577,91
4577,399
4578,39
4578,338
4578,643
4579,283
4579,573
4580,213
4580,495
4581,135
4581,427
4582,67
4582,369
4582,682
4583,322
4583,625
4584,265
4584,558
4585,198
4585,495
4586,135
4586,425
4587,65
4587,353
4587,653
4588,293
4588,602
4589,242
4589,557
4590,197
4590,494
4591,134
4591,418
4592,58
4592,356
4592,646
4593,286
4593,576
4594,216
4594,520
4595,160
4595,487
4596,127
4596,415
4597,55
4597,345
4597,630
4598,270
4598,569
4599,209
4599,503
4600,143
4600,443
4601,83
4601,390
4602,336
4602,636
4603,276
4603,561
4604,201
4604,486
4605,126
4605,426
4606,66
4606,367
4606,668
4607,308
4607,633
4608,273
4608,556
4609,196
4609,490
4610,130
4610,415
4611,55
4611,347
4611,655
4612,295
4612,602
4613,242
4613,540
4614,180
4614,479
4615,119
4615,415
4616,55
4616,343
4616,627
4617,267
4617,568
4618,208
4618,519
4619,159
4619,464
4620,104
4620,405
4621,45
4621,358
4621,632
4622,272
4622,560
4623,200
4623,489
4624,129
4624,441
4625,81
4625,389
4626,329
4626,625
4627,265
4627,551
4628,191
4628,483
4629,123
4629,415
4630,55
4630,353
4630,668
4631,308
4631,619
4632,259
4632,552
4633,192
4633,483
4634,123
4634,410
4635,50
4635,369
4635,646
4636,286
4636,587
4637,227
4637,542
4638,182
4638,485
4639,125
4639,408
4640,48
4640,336
4640,626
4641,266
4641,568
4642,208
4642,513
4643,153
4643,456
4644,96
4644,411
4645,51
4645,344
4645,626
4646,266
4646,555
4647,195
4647,489
4648,129
4648,440
4649,80
4649,383
4649,682
4650,322
4650,629
4651,269
4651,557
4652,197
4652,480
4653,120
4653,413
4654,53
4654,357
4654,673
4655,313
4655,616
4656,256
4656,549
4657,189
4657,490
4658,130
4658,417
4659,57
4659,340
4659,638
4660,278
4660,587
4661,227
4661,539
4662,179
4662,474
4663,114
4663,404
4664,44
4664,343
4665,564
4666,204
4666,531
4667,171
4667,461
4668,101
4668,406
4669,46
4669,336
4669,623
4670,263
4670,559
4671,199
4671,491
4672,131
4672,429
4673,69
4673,375
4673,684
4674,324
4674,623
4675,263
4675,551
4676,191
4676,481
4677,121
4677,419
4678,59
4678,359
4678,663
4679,303
4679,605
4680,245
4680,551
4681,191
4681,481
4682,121
4682,403
4683,43
4683,338
4683,641
4684,281
4684,583
4685,223
4685,529
4686,169
4686,470
4687,110
4687,408
4688,48
4688,336
4688,620
4689,260
4689,565
4690,205
4690,512
4691,152
4691,454
4692,94
4692,397
4693,37
4693,331
4693,623
4694,263
4694,548
4695,188
4695,477
4696,117
4696,429
4697,69
4697,381
4697,683
4698,323
4698,620
4699,260
4699,549
4700,189
4700,482
4701,122
4701,411
4702,51
4702,347
4702,665
4703,305
4703,613
4704,253
4704,544
4705,184
4705,471
4706,111
4706,399
4707,39
4707,353
4707,630
4708,270
4708,575
4709,215
4709,536
4710,176
4710,477
4711,117
4711,401
4712,41
4712,328
4712,617
4713,257
4713,557
4714,197
4714,500
4715,140
4715,445
4716,85
4716,398
4717,38
4717,329
4717,611
4718,251
4718,537
4719,177
4719,476
4720,116
4720,425
4721,65
4721,373
4721,677
4722,317
4722,621
4723,261
4723,547
4724,187
4724,469
4725,109
4725,398
4726,38
4726,345
4726,655
4727,295
4727,597
4728,237
4728,538
4729,178
4729,473
4730,113
4730,398
4731,38
4731,326
4731,624
4732,264
4732,578
4733,218
4733,525
4734,165
4734,462
4735,102
4735,398
4736,38
4736,328
4736,612
4737,252
4737,548
4738,188
4738,493
4739,133
4739,446
4740,86
4740,410
4740,679
4741,50
4741,319
4741,614
4742,254
4742,546
4743,186
4743,476
4744,116
4744,422
4745,62
4745,370
4745,680
4746,320
4746,615
4747,255
4747,537
4748,177
4748,471
4749,111
4749,406
4750,46
4750,342
4750,650
4751,290
4751,597
4752,237
4752,543
4753,183
4753,471
4754,111
4754,394
4755,335
4755,635
4756,275
4756,578
4757,218
4757,524
4758,164
4758,465
4759,105
4759,400
4759,682
4760,40
4760,322
4760,607
4761,247
4761,555
4762,195
4762,501
4763,141
4763,444
4764,84
4764,409
4764,684
4765,49
4765,324
4765,617
4766,257
4766,543
4767,183
4767,473
4768,113
4768,428
4769,68
4769,375
4769,673
4770,313
4770,607
4771,247
4771,537
4772,177
4772,469
4773,109
4773,399
4774,39
4774,338
4774,657
4775,297
4775,602
4776,242
4776,533
4777,173
4777,483
4778,123
4778,394
4779,326
4779,621
4780,261
4780,570
4781,210
4781,522
4782,162
4782,459
4783,99
4783,387
4783,673
4784,313
4784,609
4785,249
4785,547
4786,187
4786,489
4787,129
4787,443
4788,83
4788,390
4788,680
4789,320
4789,607
4790,247
4790,533
4791,173
4791,472
4792,112
4792,416
4793,56
4793,356
4793,667
4794,307
4794,609
4795,249
4795,533
4796,173
4796,461
4797,101
4797,393
4798,342
4798,648
4799,288
4799,587
4800,227
4800,536
4801,176
4801,468
4802,108
4802,389
4802,679
4803,319
4803,617
4804,257
4804,568
4805,208
4805,512
4806,152
4806,449
4807,89
4807,411
4807,679
4808,51
4808,319
4808,605
4809,245
4809,541
4810,181
4810,487
4811,127
4811,441
4812,81
4812,383
4812,673
4813,313
4813,628
4814,268
4814,536
4815,176
4815,464
4816,104
4816,406
4817,46
4817,355
4817,668
4818,308
4818,603
4819,243
4819,530
4820,170
4820,467
4821,107
4821,397
4822,37
4822,331
4822,638
4823,278
4823,585
4824,225
4824,526
4825,166
4825,454
4826,94
4826,380
4826,678
4827,318
4827,614
4828,254
4828,556
4829,196
4829,504
4830,144
4830,452
4831,92
4831,385
4831,672
4832,312
4832,603
4833,243
4833,544
4834,184
4834,488
4835,128
4835,431
4836,71
4836,373
4836,673
4837,313
4837,601
4838,241
4838,525
4839,165
4839,462
4840,102
4840,413
4841,53
4841,358
4841,662
4842,302
4842,598
4843,238
4843,534
4844,174
4844,460
4845,100
4845,386
4846,335
4846,645
4847,285
4847,586
4848,226
4848,524
4849,164
4849,453
4850,93
4850,407
4850,675
4851,47
4851,315
4851,609
4852,249
4852,565
4853,205
4853,516
4854,156
4854,453
4855,93
4855,385
4855,672
4856,312
4856,606
4857,246
4857,539
4858,179
4858,480
4859,120
4859,436
4860,76
4860,381
4860,671
4861,311
4861,597
4862,237
4862,526
4863,166
4863,469
4864,109
4864,410
4865,50
4865,354
4865,670
4866,310
4866,606
4867,246
4867,527
4868,167
4868,452
4869,92
4869,384
4870,329
4870,634
4871,274
4871,577
4872,217
4872,526
4873,166
4873,472
4874,112
4874,377
4874,667
4875,307
4875,610
4876,250
4876,559
4877,199
4877,504
4878,144
4878,446
4879,86
4879,667
4880,307
4880,593
4881,233
4881,526
4882,166
4882,478
4883,118
4883,427
4884,67
4884,368
4884,666
4885,306
4885,599
4886,239
4886,526
4887,166
4887,457
4888,97
4888,399
4889,39
4889,354
4889,656
4890,296
4890,588
4891,228
4891,523
4892,163
4892,454
4893,94
4893,380
4893,680
4894,320
4894,629
4895,269
4895,581
4896,221
4896,519
4897,159
4897,444
4898,84
4898,382
4898,673
4899,313
4899,606
4900,246
4900,553
4901,193
4901,498
4902,138
4902,445
4903,85
4903,375
4903,657
4904,297
4904,595
4905,235
4905,532
4906,172
4906,473
4907,113
4907,423
4908,63
4908,388
4908,669
4909,309
4909,595
4910,235
4910,518
4911,158
4911,461
4912,101
4912,405
4913,45
4913,343
4913,647
4914,287
4914,586
4915,226
4915,517
4916,157
4916,443
4917,83
4917,374
4917,683
4918,323
4918,631
4919,271
4919,572
4920,212
4920,511
4921,151
4921,444
4922,84
4922,375
4922,662
4923,302
4923,600
4924,240
4924,553
4925,193
4925,499
4926,139
4926,437
4927,77
4927,366
4927,659
4928,299
4928,611
4929,251
4929,524
4930,164
4930,473
4931,113
4931,429
4932,69
4932,370
4932,659
4933,299
4933,586
4934,226
4934,519
4935,159
4935,452
4936,92
4936,391
4937,344
4937,653
4938,293
4938,587
4939,227
4939,515
4940,155
4940,444
4941,84
4941,381
4941,682
4942,322
4942,625
4943,265
4943,579
4944,219
4944,519
4945,159
4945,445
4946,85
4946,371
4946,661
4947,301
4947,605
4948,245
4948,549
4949,189
4949,490
4950,130
4950,443
4951,83
4951,376
4951,661
4952,301
4952,590
4953,230
4953,527
4954,167
4954,480
4955,120
4955,424
4956,64
4956,361
4956,666
4957,306
4957,593
4958,233
4958,514
4959,154
4959,445
4960,85
4960,390
4961,342
4961,646
4962,286
4962,581
4963,221
4963,520
4964,160
4964,447
4965,87
4965,371
4965,670
4966,310
4966,622
4967,262
4967,570
4968,210
4969,436
4970,76
4970,387
4970,657
4971,297
4971,591
4972,231
4972,536
4973,176
4973,491
4974,131
4974,436
4975,76
4975,364
4975,654
4976,294
4976,589
4977,229
4977,521
4978,161
4978,462
4979,102
4979,408
4980,48
4980,358
4980,652
4981,292
4981,573
4982,213
4982,508
4983,148
4983,447
4984,87
4984,386
4985,356
4985,640
4986,280
4986,583
4987,223
4987,510
4988,150
4988,432
4989,72
4989,371
4989,673
4990,313
4990,616
4991,256
4991,561
4992,201
4992,500
4993,140
4993,436
4994,76
4994,363
4994,649
4995,289
4995,597
4996,237
4996,546
4997,186
4997,489
4998,129
4998,430
4999,70
4999,361
4999,655
5000,295
5000,580
5001,220
5001,511
5002,151
5002,488
5003,128
5003,413
5004,53
5004,350
5004,644
5005,284
5005,574
5006,214
5006,507
5007,147
5007,438
5008,78
5008,380
5009,337
5009,640
5010,280
5010,572
5011,212
5011,501
5012,141
5012,430
5013,70
5013,364
5013,661
5014,301
5014,609
5015,249
5015,562
5016,202
5016,502
5017,142
5017,448
5018,88
5018,355
5018,563
5019,203
5019,501
5020,141
5020,442
5021,82
5021,385
5022,339
5022,635
5023,275
5023,556
5024,196
5024,482
5025,122
5025,418
5026,58
5026,364
5026,668
5027,308
5027,615
5028,255
5028,581
5029,221
5029,492
5030,132
5030,415
5031,55
5031,343
5031,647
5032,287
5032,596
5033,236
5033,537
5034,177
5034,481
5035,121
5035,416
5036,56
5036,340
5036,627
5037,267
5037,563
5038,203
5038,515
5039,155
5039,465
5040,105
5040,406
5041,46
5041,343
5041,634
5042,274
5042,559
5043,199
5043,493
5044,133
5044,436
5045,76
5045,390
5046,334
5046,623
5047,263
5047,558
5048,198
5048,488
5049,128
5049,416
5050,56
5050,359
5050,669
5051,309
5051,620
5052,260
5052,557
5053,197
5053,480
5054,120
5054,418
5055,58
5055,347
5055,641
5056,281
5056,589
5057,229
5057,534
5058,174
5058,480
5059,120
5059,408
5060,48
5060,331
5060,632
5061,272
5061,571
5062,211
5062,512
5063,152
5063,458
5064,98
5064,404
5065,44
5065,340
5065,642
5066,282
5066,550
5067,190
5067,493
5068,133
5068,437
5069,77
5069,376
5069,679
5070,319
5070,620
5071,260
5071,551
5072,191
5072,475
5073,115
5073,412
5074,52
5074,361
5074,667
5075,307
5075,609
5076,249
5076,545
5077,185
5077,480
5078,120
5078,406
5079,46
5079,331
5079,636
5080,276
5080,585
5081,225
5081,528
5082,168
5082,470
5083,110
5083,400
5084,40
5084,334
5084,626
5085,266
5085,558
5086,198
5086,511
5087,151
5087,461
5088,101
5088,399
5089,39
5089,332
5089,618
5090,258
5090,553
5091,193
5091,486
5092,126
5092,425
5093,65
5093,382
5094,330
5094,619
5095,259
5095,548
5096,188
5096,478
5097,118
5097,414
5098,54
5098,374
5098,657
5099,297
5099,612
5100,252
5100,548
5101,188
5101,472
5102,112
5102,400
5103,40
5103,331
5103,636
5104,276
5104,581
5105,221
5105,527
5106,167
5106,478
5107,118
5107,409
5108,49
5108,332
5108,620
5109,260
5109,560
5110,200
5110,510
5111,150
5111,453
5112,93
5112,395
5113,35
5113,336
5114,544
5115,184
5115,478
5116,118
5116,429
5117,69
5117,379
5117,680
5118,320
5118,620
5119,260
5119,555
5120,195
5120,479
5121,119
5121,407
5122,47
5122,348
5122,661
5123,301
5123,606
5124,246
5124,539
5125,179
5125,474
5126,114
5126,405
5127,45
5127,332
5127,633
5128,273
5128,581
5129,221
5129,535
5130,175
5130,474
5131,114
5131,400
5132,40
5132,335
5132,625
5133,265
5133,558
5134,198
5134,503
5135,143
5135,449
5136,89
5136,400
5137,40
5137,331
5137,613
5138,253
5138,553
5139,193
5139,490
5140,130
5140,428
5141,68
5141,375
5141,680
5142,320
5142,619
5143,259
5143,545
5144,185
5144,468
5145,108
5145,410
5146,50
5146,350
5146,650
5147,290
5147,595
5148,235
5148,537
5149,177
5149,471
5150,111
5150,397
5151,37
5151,329
5151,635
5152,275
5152,582
5153,222
5153,523
5154,163
5154,461
5155,101
5155,398
5156,38
5156,327
5156,611
5157,251
5157,551
5158,191
5158,502
5159,142
5159,448
5160,88
5160,388
5160,681
5161,321
5161,615
5162,255
5162,545
5163,185
5163,472
5164,112
5164,423
5165,63
5165,375
5165,673
5166,313
5166,609
5167,249
5167,536
5168,176
5168,468
5169,108
5169,398
5170,38
5170,335
5170,653
5171,293
5171,602
5172,242
5172,536
5173,176
5173,466
5173,659
5174,106
5174,299
5174,592
5175,232
5175,527
5176,167
5176,469
5177,109
5177,421
5178,61
5178,368
5178,658
5179,298
5179,584
5180,224
5180,511
5181,151
5181,453
5182,93
5182,398
5183,38
5183,340
5183,380
5183,656
5184,296
5184,594
5185,234
5185,517
5186,157
5186,445
5187,85
5187,375
5187,680
5188,320
5188,626
5189,266
5189,566
5190,206
5190,516
5191,156
5191,445
5192,85
5192,660
5193,300
5193,600
5194,240
5194,553
5195,193
5195,498
5196,138
5196,436
5197,76
5197,377
5197,664
5198,304
5198,587
5199,227
5199,521
5200,161
5200,468
5201,108
5201,421
5202,61
5202,361
5202,653
5203,293
5203,591
5204,231
5204,521
5205,161
5205,448
5206,88
5206,392
5207,344
5207,652
5208,292
5208,584
5209,224
5209,515
5210,155
5210,449
5211,89
5211,377
5211,674
5212,314
5212,620
5213,260
5213,571
5214,211
5214,512
5215,152
5215,438
5216,78
5216,372
5216,667
5217,307
5217,601
5218,241
5218,547
5219,187
5219,493
5220,133
5220,440
5221,80
5221,372
5221,654
5222,294
5222,589
5223,229
5223,527
5224,167
5224,468
5225,108
5225,416
5226,56
5226,361
5226,664
5227,304
5227,590
5228,230
5228,514
5229,154
5229,457
5230,97
5230,402
5231,42
5231,343
5231,646
5232,286
5232,583
5233,223
5233,516
5234,156
5234,440
5235,80
5235,367
5235,678
5236,318
5236,625
5237,265
5237,567
5238,207
5238,507
5239,147
5239,439
5240,79
5240,371
5240,658
5241,298
5241,594
5242,234
5242,549
5243,189
5243,494
5244,134
5244,430
5245,70
5245,360
5245,651
5246,291
5246,583
5247,223
5247,516
5248,156
5248,463
5249,103
5249,419
5250,59
5250,361
5250,652
5251,292
5251,578
5252,218
5252,513
5253,153
5253,445
5254,85
5254,382
5255,336
5255,645
5256,285
5256,578
5257,218
5257,506
5258,146
5258,433
5259,73
5259,371
5259,670
5260,310
5260,613
5261,253
5261,570
5262,210
5262,511
5263,151
5263,435
5264,75
5264,364
5264,671
5265,311
5265,594
5266,234
5266,539
5267,179
5267,481
5268,121
5268,434
5269,74
5269,367
5269,649
5270,289
5270,579
5271,219
5271,516
5272,156
5272,469
5273,109
5273,415
5274,55
5274,354
5274,659
5275,299
5275,585
5276,225
5276,504
5277,144
5277,436
5278,76
5278,382
5279,331
5279,635
5280,275
5280,572
5281,212
5281,509
5282,149
5282,453
5283,93
5283,363
5283,662
5284,302
5284,615
5285,255
5285,564
5286,204
5286,499
5287,139
5287,432
5288,72
5288,365
5288,652
5289,292
5289,585
5290,225
5290,530
5291,170
5291,485
5292,125
5292,449
5293,89
5293,358
5293,651
5294,291
5294,587
5295,227
5295,517
5296,157
5296,461
5297,101
5297,407
5298,47
5298,357
5298,650
5299,290
5299,573
5300,213
5300,508
5301,148
5301,444
5302,84
5302,379
5303,632
5304,272
5304,576
5305,216
5305,503
5306,143
5306,425
5307,65
5307,366
5307,667
5308,307
5308,609
5309,249
5309,555
5310,195
5310,495
5311,135
5311,431
5312,71
5312,355
5312,639
5313,279
5313,588
5313,628
5314,228
5314,268
5314,536
5315,176
5315,479
5316,119
5316,421
5317,61
5317,355
5317,648
5318,288
5318,574
5319,214
5319,506
5320,146
5320,461
5321,101
5321,407
5322,47
5322,342
5322,635
5323,275
5323,567
5324,207
5324,498
5325,138
5325,429
5326,69
5326,375
5327,329
5327,632
5328,272
5328,566
5329,206
5329,493
5330,133
5330,428
5331,68
5331,357
5331,652
5332,292
5332,605
5333,245
5333,554
5334,194
5334,491
5335,131
5335,422
5336,62
5336,349
5336,647
5337,287
5337,584
5338,224
5338,524
5339,164
5339,481
5339,523
5340,121
5340,163
5340,429
5341,69
5341,362
5341,640
5341,674
5342,280
5342,314
5342,567
5343,207
5343,509
5344,149
5344,450
5345,90
5345,390
5346,347
5346,644
5347,284
5347,567
5348,207
5348,495
5349,135
5349,429
5350,69
5350,376
5350,681
5351,321
5351,623
5352,263
5352,570
5353,210
5353,498
5354,138
5354,419
5355,59
5355,347
5355,648
5356,288
5356,600
5357,240
5357,547
5358,187
5358,488
5359,128
5359,425
5360,65
5360,352
5360,638
5361,278
5361,573
5362,213
5362,524
5363,164
5363,475
5364,115
5364,413
5364,450
5365,53
5365,90
5365,348
5365,641
5366,281
5366,565
5367,205
5367,496
5368,136
5368,441
5369,81
5369,394
5370,340
5370,632
5371,272
5371,567
5372,207
5372,497
5373,137
5373,424
5374,64
5374,368
5374,676
5375,316
5375,627
5375,666
5376,267
5376,306
5376,563
5376,599
5377,203
5377,239
5377,486
5378,126
5378,422
5379,62
5379,354
5379,651
5380,291
5380,601
5381,241
5381,549
5382,189
5382,496
5383,136
5383,425
5384,65
5384,346
5384,646
5385,286
5385,585
5386,225
5386,524
5386,557
5387,164
5387,197
5387,471
5388,111
5388,414
5389,54
5389,353
5389,635
5390,275
5390,561
5391,201
5391,510
5392,150
5392,455
5393,95
5393,396
5394,36
5394,341
5394,637
5395,277
5395,568
5396,208
5396,492
5397,132
5397,423
5398,63
5398,375
5398,413
5398,682
5399,53
5399,322
5399,620
5400,260
5400,558
5401,198
5401,491
5402,131
5402,422
5403,62
5403,352
5403,654
5404,294
5404,608
5405,248
5405,552
5406,192
5406,489
5407,129
5407,416
5408,56
5408,351
5408,640
5408,678
5409,280
5409,318
5409,571
5410,211
5410,524
5411,164
5411,474
5412,265
5412,575
5413,215
5413,516
5414,156
5414,460
5415,100
5415,402
5416,42
5416,354
5417,327
5417,644
5418,284
5418,584
5419,224
5419,524
5420,164
5420,467
5421,107
5421,407
5422,47
5422,354
5422,682
5423,322
5423,649
5424,289
5424,618
5425,258
5425,575
5426,215
5426,540
5427,180
5427,492
5428,132
5428,456
5429,96
5429,433
5430,73
5430,392
5431,338
5431,641
5432,281
5432,581
5433,221
5433,537
5434,177
5434,497
5435,137
5435,459
5436,99
5436,420
5437,60
5437,361
5437,663
5438,303
5438,603
5439,243
5439,559
5440,199
5440,517
5441,157
5441,470
5442,110
5442,423
5443,63
5443,360
5443,643
5444,283
5444,577
5445,217
5445,515
5446,155
5446,458
5447,98
5447,401
5448,41
5448,340
5448,638
5449,278
5449,566
5450,206
5450,489
5451,129
5451,421
5452,61
5452,369
5452,682
5453,322
5453,623
5454,263
5454,563
5455,203
5455,497
5456,137
5456,429
5457,69
5457,375
5458,326
5458,659
5459,299
5459,616
5460,256
5460,557
5461,197
5461,506
5462,146
5462,445
5463,85
5463,379
5464,328
5464,646
5465,286
5465,608
5466,248
5466,550
5467,190
5467,486
5468,126
5468,433
5469,73
5469,373
5469,680
5470,320
5470,637
5471,277
5471,597
5472,237
5472,536
5473,176
5473,463
5474,103
5474,407
5475,47
5475,346
5475,647
5476,287
5476,599
5477,239
5477,555
5478,195
5478,508
5479,148
5479,441
5480,81
5480,380
5480,685
5481,325
5481,625
5482,265
5482,573
5483,213
5483,522
5484,162
5484,469
5485,109
5485,404
5486,44
5486,334
5486,632
5487,272
5487,574
5488,214
5488,514
5489,154
5489,466
5490,106
5490,411
5491,51
5491,344
5491,624
5492,264
5492,544
5493,184
5493,490
5494,130
5494,435
5495,75
5495,379
5496,334
5496,640
5497,280
5497,581
5498,221
5498,518
5499,158
5499,472
5500,112
5500,436
5501,76
5501,396
5502,36
5502,358
5502,665
5503,305
5503,614
5504,254
5504,558
5505,198
5505,500
5506,140
5506,468
5507,108
5507,429
5508,69
5508,378
5508,679
5509,319
5509,620
5510,260
5510,566
5511,206
5511,514
5512,154
5512,476
5513,116
5513,444
5514,84
5514,395
5515,35
5515,338
5515,638
5516,278
5516,586
5517,226
5517,532
5518,172
5518,487
5519,127
5519,454
5520,94
5520,404
5521,44
5521,338
5521,633
5522,273
5522,577
5523,217
5523,520
5524,160
5524,468
5525,108
5525,425
5526,65
5526,373
5526,666
5527,306
5527,596
5528,236
5528,526
5529,166
5529,471
5530,111
5530,421
5531,61
5531,363
5531,681
5532,321
5532,627
5533,267
5533,553
5534,193
5534,484
5535,124
5535,424
5536,64
5536,374
5536,683
5537,323
5537,629
5538,269
5538,570
5539,210
5539,496
5540,136
5540,418
5541,58
5541,344
5541,651
5542,291
5542,590
5543,230
5543,523
5544,163
5544,458
5545,98
5545,382
5545,661
5546,301
5546,586
5547,226
5547,514
5548,154
5548,462
5549,102
5549,408
5550,48
5550,344
5550,645
5551,285
5551,578
5552,218
5552,507
5553,147
5553,450
5554,90
5554,399
5555,39
5555,360
5555,668
5556,308
5556,607
5557,247
5557,550
5558,190
5558,485
5559,125
5559,416
5560,56
5560,361
5560,672
5561,312
5561,616
5562,256
5562,550
5563,190
5563,480
5564,120
5564,406
5565,46
5565,330
5565,626
5566,266
5566,565
5567,205
5567,504
5568,144
5568,430
5569,70
5569,344
5569,627
5570,267
5570,559
5571,199
5571,497
5572,137
5572,453
5573,93
5573,415
5574,55
5574,382
5575,344
5575,663
5576,303
5576,620
5577,260
5577,577
5578,217
5578,535
5579,175
5579,503
5580,143
5580,462
5581,102
5581,405
5582,45
5582,338
5582,647
5583,287
5583,600
5584,240
5584,553
5585,193
5585,512
5586,152
5586,466
5587,106
5587,413
5588,53
5588,350
5588,663
5589,303
5589,636
5590,276
5590,603
5591,243
5591,573
5592,213
5592,527
5593,167
5593,479
5594,119
5594,419
5595,59
5595,359
5596,332
5596,656
5597,296
5597,610
5598,250
5598,564
5599,204
5599,511
5600,151
5600,456
5601,96
5601,402
5602,42
5602,372
5603,343
5603,667
5604,307
5604,620
5605,260
5605,572
5606,212
5606,523
5607,163
5607,478
5608,118
5608,450
5609,90
5609,425
5610,65
5610,390
5611,340
5611,647
5612,287
5612,598
5613,238
5613,546
5614,186
5614,508
5615,148
5615,479
5616,119
5616,427
5617,67
5617,366
5617,660
5618,300
5618,606
5619,246
5619,551
5620,191
5620,498
5621,138
5621,463
5622,103
5622,411
5623,51
5623,339
5623,634
5624,274
5624,571
5625,211
5625,513
5626,153
5626,461
5627,101
5627,413
5628,53
5628,365
5628,655
5629,295
5629,578
5630,218
5630,505
5631,145
5631,449
5632,89
5632,394
5633,336
5633,646
5634,286
5634,585
5635,225
5635,513
5636,153
5636,446
5637,86
5637,374
5638,328
5638,635
5639,275
5639,572
5640,212
5640,525
5641,165
5641,463
5642,103
5642,388
5642,684
5643,324
5643,628
5644,268
5644,583
5645,223
5645,524
5646,164
5646,459
5647,99
5647,392
5647,674
5648,314
5648,587
5649,227
5649,515
5650,155
5650,457
5651,97
5651,400
5652,40
5652,334
5652,624
5653,264
5653,551
5654,191
5654,471
5655,111
5655,392
5656,326
5656,630
5657,270
5657,569
5658,209
5658,496
5659,136
5659,420
5660,60
5660,349
5660,627
5661,267
5661,554
5662,194
5662,496
5663,136
5663,442
5664,82
5664,383
5664,668
5665,308
5665,594
5666,234
5666,526
5667,166
5667,452
5668,92
5668,390
5669,331
5669,633
5670,273
5670,560
5671,200
5671,479
5672,119
5672,404
5673,44
5673,328
5673,615
5674,255
5674,555
5675,195
5675,485
5676,125
5676,415
5676,682
5677,55
5677,322
5677,578
5678,218
5678,477
5679,117
5679,390
5679,670
5680,310
5680,598
5681,238
5681,536
5682,176
5682,473
5683,113
5683,410
5684,50
5684,336
5684,636
5685,276
5685,602
5686,242
5686,548
5687,188
5687,495
5688,135
5688,445
5689,85
5689,388
5689,682
5690,322
5690,610
5691,250
5691,563
5692,203
5692,526
5693,166
5693,482
5694,122
5694,440
5695,80
5695,392
5696,340
5696,644
5697,284
5697,601
5698,241
5698,567
5699,207
5699,527
5700,167
5700,485
5701,125
5701,435
5702,75
5702,390
5703,336
5703,655
5704,295
5704,638
5705,278
5705,602
5706,242
5706,558
5707,198
5707,505
5708,145
5708,459
5709,99
5709,415
5710,55
5710,373
5711,353
5711,680
5712,320
5712,619
5713,259
5713,562
5714,202
5714,509
5715,149
5715,458
5716,98
5716,408
5717,48
5717,372
5718,329
5718,632
5719,272
5719,569
5720,209
5720,509
5721,149
5721,465
5722,105
5722,421
5723,61
5723,380
5724,339
5724,641
5725,281
5725,578
5726,218
5726,518
5727,158
5727,477
5728,117
5728,443
5729,83
5729,406
5730,46
5730,379
5731,335
5731,637
5732,277
5732,582
5733,222
5733,535
5734,175
5734,497
5735,137
5735,455
5736,95
5736,412
5737,52
5737,358
5737,657
5738,297
5738,601
5739,241
5739,553
5740,193
5740,516
5741,156
5741,475
5742,115
5742,429
5743,69
5743,380
5743,678
5744,318
5744,614
5745,254
5745,558
5746,198
5746,518
5747,158
5747,476
5748,116
5748,419
5749,59
5749,359
5749,651
5750,291
5750,580
5751,220
5751,523
5752,163
5752,474
5753,114
5753,428
5754,68
5754,371
5754,656
5755,296
5755,593
5756,233
5756,522
5757,162
5757,446
5758,86
5758,388
5759,336
5759,641
5760,281
5760,574
5761,214
5761,502
5762,142
5762,445
5763,85
5763,391
5764,342
5764,663
5765,303
5765,633
5766,273
5766,589
5767,229
5767,527
5768,167
5768,478
5769,118
5769,430
5770,70
5770,387
5771,346
5771,661
5772,301
5772,609
5773,249
5773,540
5774,180
5774,473
5775,113
5775,424
5776,64
5776,370
5776,674
5777,314
5777,627
5778,267
5778,578
5779,218
5779,510
5780,150
5780,439
5781,79
5781,377
5781,677
5782,317
5782,608
5783,248
5783,530
5784,170
5784,448
5785,88
5785,371
5785,652
5786,292
5786,588
5787,228
5787,556
5788,196
5788,539
5789,179
5789,511
5790,151
5790,483
5791,123
5791,455
5792,95
5792,421
5793,61
5793,382
5794,374
5795,353
5795,678
5796,318
5796,634
5797,274
5797,591
5798,231
5798,546
5799,186
5799,499
5800,139
5800,475
5801,115
5801,449
5802,89
5802,406
5803,46
5803,355
5803,665
5804,305
5804,618
5805,258
5805,569
5806,209
5806,536
5807,176
5807,501
5808,141
5808,451
5809,91
5809,393
5810,334
5810,640
5811,280
5811,580
5812,220
5812,529
5813,169
5813,491
5814,131
5814,437
5815,77
5815,372
5815,662
5816,302
5816,606
5817,246
5817,559
5818,199
5818,512
5819,152
5819,474
5820,114
5820,437
5821,77
5821,379
5821,684
5822,324
5822,631
5823,271
5823,597
5824,237
5824,559
5825,199
5825,516
5826,156
5826,485
5827,125
5827,431
5828,71
5828,369
5828,678
5829,318
5829,643
5830,283
5830,606
5831,246
5831,559
5832,199
5832,517
5833,157
5833,455
5834,95
5834,387
5834,680
5835,320
5835,634
5836,274
5836,604
5837,244
5837,563
5838,203
5838,521
5839,161
5839,470
5840,110
5840,412
5841,52
5841,365
5841,684
5842,324
5842,657
5843,297
5843,617
5844,257
5844,559
5845,199
5845,511
5846,151
5846,451
5847,91
5847,389
5848,345
5848,672
5849,312
5849,628
5850,268
5850,571
5851,211
5851,513
5852,153
5852,448
5853,88
5853,383
5854,338
5854,663
5855,303
5855,632
5856,272
5856,582
5857,222
5857,533
5858,173
5858,491
5859,131
5859,445
5860,85
5860,412
5861,52
5861,383
5862,360
5862,676
5863,316
5863,618
5864,258
5864,572
5865,212
5865,518
5866,158
5866,466
5867,106
5867,423
5868,63
5868,375
5868,668
5869,308
5869,597
5870,237
5870,536
5871,176
5871,480
5872,120
5872,428
5873,68
5873,385
5874,341
5874,645
5875,285
5875,574
5876,214
5876,507
5877,147
5877,462
5878,102
5878,414
5879,54
5879,363
5879,672
5880,312
5880,625
5881,265
5881,569
5882,209
5882,506
5883,146
5883,462
5884,102
5884,429
5885,69
5885,385
5886,345
5886,651
5887,291
5887,592
5888,232
5888,527
5889,167
5889,469
5890,109
5890,439
5891,79
5891,396
5892,36
5892,343
5892,655
5893,295
5893,604
5894,244
5894,547
5895,187
5895,490
5896,130
5896,457
5897,97
5897,414
5898,54
5898,361
5898,660
5899,300
5899,594
5900,234
5900,531
5901,171
5901,468
5902,108
5902,418
5903,58
5903,375
5903,683
5904,323
5904,618
5905,258
5905,547
5906,187
5906,477
5907,117
5907,408
5908,48
5908,343
5908,653
5909,293
5909,605
5910,245
5910,540
5911,180
5911,481
5912,121
5912,425
5913,65
5913,378
5914,338
5914,659
5915,299
5915,633
5916,273
5916,588
5917,228
5917,525
5918,165
5918,473
5919,113
5919,428
5920,68
5920,383
5921,339
5921,667
5922,307
5922,610
5923,250
5923,544
5924,184
5924,485
5925,125
5925,431
5926,71
5926,394
5927,350
5927,662
5928,302
5928,612
5929,252
5929,548
5930,188
5930,493
5931,133
5931,441
5932,81
5932,406
5933,46
5933,367
5933,677
5934,317
5934,631
5935,271
5935,570
5936,210
5936,502
5937,142
5937,449
5938,89
5938,410
5939,50
5939,369
5939,683
5940,323
5940,638
5941,278
5941,585
5942,225
5942,534
5943,174
5943,490
5944,130
5944,454
5945,94
5945,436
5946,76
5946,394
5947,342
5947,656
5948,296
5948,607
5949,247
5949,570
5950,210
5950,541
5951,181
5951,521
5952,161
5952,485
5953,125
5953,430
5954,70
5954,395
5955,35
5955,349
5955,672
5956,312
5956,643
5957,283
5957,616
5958,256
5958,574
5959,214
5959,517
5960,157
5960,469
5961,109
5961,421
5962,61
5962,371
5963,334
5963,655
5964,295
5964,602
5965,242
5965,539
5966,179
5966,482
5967,122
5967,430
5968,70
5968,389
5969,350
5969,666
5970,306
5970,622
5971,262
5971,560
5972,200
5972,500
5973,140
5973,462
5974,102
5974,420
5975,60
5975,381
5976,336
5976,648
5977,288
5977,589
5978,229
5978,517
5979,157
5979,463
5980,103
5980,424
5981,64
5981,376
5982,327
5982,637
5983,277
5983,585
5984,225
5984,532
5985,172
5985,484
5986,124
5986,450
5987,90
5987,406
5988,46
5988,359
5988,662
5989,302
5989,607
5990,247
5990,539
5991,179
5991,478
5992,118
5992,442
5993,82
5993,394
5994,335
5994,631
5995,271
5995,560
5996,200
5996,496
5997,136
5997,430
5998,70
5998,365
5998,676
5999,316
5999,611
6000,251
6000,533
6001,173
6001,453
6002,93
6002,375
6002,663
6003,303
6003,598
6004,238
6004,542
6005,182
6005,493
6006,133
6006,431
6007,71
6007,361
6007,651
6008,291
6008,592
6009,232
6009,537
6010,177
6010,486
6011,126
6011,453
6012,93
6012,405
6013,45
6013,343
6013,640
6014,280
6014,580
6015,220
6015,538
6016,178
6016,493
6017,133
6017,454
6018,94
6018,419
6019,59
6019,356
6019,651
6020,291
6020,591
6021,231
6021,544
6022,184
6022,499
6023,139
6023,446
6024,86
6024,408
6025,48
6025,352
6025,638
6026,278
6026,576
6027,216
6027,528
6028,168
6028,486
6029,126
6029,440
6030,80
6030,399
6031,39
6031,344
6031,640
6032,280
6032,580
6033,220
6033,526
6034,166
6034,494
6035,134
6035,449
6036,89
6036,396
6037,36
6037,348
6037,642
6038,282
6038,573
6039,213
6039,515
6040,155
6040,469
6041,109
6041,420
6042,60
6042,358
6042,651
6043,291
6043,590
6044,230
6044,514
6045,154
6045,441
6046,81
6046,390
6047,351
6047,666
6048,306
6048,601
6049,241
6049,542
6050,182
6050,482
6051,122
6051,418
6052,58
6052,361
6052,670
6053,310
6053,620
6054,260
6054,554
6055,194
6055,483
6056,123
6056,424
6057,64
6057,363
6057,674
6058,314
6058,641
6059,281
6059,605
6060,245
6060,575
6061,215
6061,512
6062,152
6062,468
6063,108
6063,423
6064,63
6064,380
6065,342
6065,656
6066,296
6066,608
6067,248
6067,545
6068,185
6068,483
6069,123
6069,435
6070,75
6070,387
6071,341
6071,654
6072,294
6072,602
6073,242
6073,533
6074,173
6074,464
6075,104
6075,417
6076,57
6076,371
6076,682
6077,322
6077,634
6078,274
6078,584
6079,224
6079,524
6080,164
6080,457
6081,97
6081,407
6082,47
6082,370
6083,329
6083,650
6084,290
6084,596
6085,236
6085,538
6086,178
6086,469
6087,109
6087,403
6088,43
6088,364
6088,680
6089,320
6089,623
6090,263
6090,570
6091,210
6091,513
6092,153
6092,456
6093,96
6093,400
6094,40
6094,361
6095,327
6095,640
6096,280
6096,584
6097,224
6097,522
6098,162
6098,463
6099,103
6099,399
6100,39
6100,349
6100,680
6101,320
6101,635
6102,275
6102,579
6103,219
6103,522
6104,162
6104,475
6105,115
6105,435
6106,75
6106,396
6107,36
6107,374
6108,341
6108,646
6109,286
6109,588
6110,228
6110,532
6111,172
6111,488
6112,128
6112,449
6113,89
6113,417
6114,57
6114,380
6114,684
6115,324
6115,624
6116,264
6116,568
6117,208
6117,523
6118,163
6118,477
6119,117
6119,431
6120,71
6120,394
6121,331
6121,625
6122,265
6122,563
6123,203
6123,518
6124,158
6124,477
6125,117
6125,436
6126,76
6126,400
6127,40
6127,349
6127,647
6128,287
6128,599
6129,239
6129,550
6130,190
6130,516
6131,156
6131,473
6132,113
6132,422
6133,62
6133,372
6133,669
6134,309
6134,604
6135,244
6135,555
6136,195
6136,519
6137,159
6137,476
6138,116
6138,425
6139,65
6139,375
6139,668
6140,308
6140,600
6141,240
6141,545
6142,185
6142,503
6143,143
6143,464
6144,104
6144,408
6145,48
6145,351
6145,656
6146,296
6146,597
6147,237
6147,547
6148,187
6148,511
6149,151
6149,484
6150,124
6150,439
6151,79
6151,378
6152,333
6152,634
6153,274
6153,574
6154,214
6154,529
6155,169
6155,489
6156,129
6156,441
6157,81
6157,376
6157,672
6158,312
6158,612
6159,252
6159,547
6160,187
6160,498
6161,138
6161,454
6162,94
6162,411
6163,51
6163,344
6163,631
6164,271
6164,577
6165,217
6165,524
6166,164
6166,472
6167,112
6167,426
6168,66
6168,380
6168,684
6169,324
6169,617
6170,257
6170,561
6171,201
6171,516
6172,156
6172,470
6173,110
6173,436
6174,76
6174,396
6175,36
6175,352
6175,651
6176,291
6176,590
6177,230
6177,561
6178,201
6178,532
6179,172
6179,478
6180,118
6180,424
6181,64
6181,365
6181,649
6182,289
6182,572
6183,212
6183,518
6184,158
6184,476
6185,116
6185,436
6186,76
6186,393
6187,342
6187,658
6188,298
6188,607
6189,247
6189,578
6190,218
6190,557
6191,197
6191,525
6192,165
6192,492
6193,132
6193,447
6194,87
6194,405
6195,45
6195,362
6196,328
6196,670
6197,310
6197,632
6198,272
6198,590
6199,230
6199,543
6200,183
6200,501
6201,141
6201,455
6202,95
6202,423
6203,63
6203,402
6204,42
6204,366
6204,673
6205,313
6205,622
6206,262
6206,581
6207,221
6207,539
6208,179
6208,503
6209,143
6209,483
6210,123
6210,439
6211,79
6211,386
6212,332
6212,651
6213,291
6213,617
6214,257
6214,585
6215,225
6215,564
6216,204
6216,522
6217,162
6217,463
6218,103
6218,410
6219,50
6219,357
6219,678
6220,318
6220,640
6221,280
6221,604
6222,244
6222,563
6223,203
6223,500
6224,140
6224,443
6225,83
6225,397
6226,37
6226,367
6227,331
6227,649
6228,289
6228,608
6229,248
6229,547
6230,187
6230,479
6231,119
6231,422
6232,62
6232,389
6233,347
6233,656
6234,296
6234,613
6235,253
6235,556
6236,196
6236,492
6237,132
6237,440
6238,80
6238,398
6239,38
6239,366
6240,327
6240,635
6241,275
6241,586
6242,226
6242,526
6243,166
6243,482
6244,122
6244,450
6245,90
6245,422
6246,62
6246,378
6246,684
6247,324
6247,635
6248,275
6248,577
6249,217
6249,522
6250,162
6250,485
6251,125
6251,458
6252,98
6252,413
6253,53
6253,356
6253,674
6254,314
6254,620
6255,260
6255,571
6256,211
6256,533
6257,173
6257,504
6258,144
6258,466
6259,106
6259,410
6260,50
6260,364
6260,684
6261,324
6261,646
6262,286
6262,622
6263,262
6263,594
6264,234
6264,561
6265,201
6265,499
6266,139
6266,442
6267,82
6267,396
6268,36
6268,351
6268,671
6269,311
6269,631
6270,271
6270,589
6271,229
6271,529
6272,169
6272,475
6273,115
6273,439
6274,79
6274,405
6275,45
6275,372
6276,340
6276,663
6277,303
6277,620
6278,260
6278,566
6279,206
6279,540
6280,180
6280,506
6281,146
6281,475
6282,115
6282,461
6283,101
6283,432
6284,72
6284,395
6285,35
6285,349
6286,329
6286,665
6287,305
6287,631
6288,271
6288,595
6289,235
6289,552
6290,192
6290,496
6291,136
6291,455
6292,95
6292,437
6293,77
6293,414
6294,54
6294,382
6295,341
6295,669
6296,309
6296,629
6297,269
6297,585
6298,225
6298,567
6299,207
6299,534
6300,174
6300,492
6301,132
6301,441
6302,81
6302,396
6303,36
6303,355
6303,677
6304,317
6304,660
6305,300
6305,631
6306,271
6306,580
6307,220
6307,530
6308,170
6308,479
6309,119
6309,434
6310,74
6310,400
6311,40
6311,380
6312,351
6312,657
6313,297
6313,597
6314,237
6314,542
6315,182
6315,485
6316,125
6316,420
6317,60
6317,359
6317,665
6318,305
6318,597
6319,237
6319,523
6320,163
6320,457
6321,97
6321,410
6322,50
6322,377
6323,338
6323,674
6324,314
6324,637
6325,277
6325,587
6326,227
6326,541
6327,181
6327,502
6328,142
6328,480
6329,120
6329,445
6330,85
6330,403
6331,43
6331,351
6331,637
6332,277
6332,571
6333,211
6333,517
6334,157
6334,477
6335,117
6335,437
6336,77
6336,392
6337,352
6337,657
6338,297
6338,601
6339,241
6339,558
6340,198
6340,532
6341,172
6341,490
6342,130
6342,431
6343,71
6343,383
6343,682
6344,322
6344,625
6345,265
6345,583
6346,223
6346,547
6347,187
6347,519
6348,159
6348,474
6349,114
6349,423
6350,63
6350,377
6351,327
6351,660
6352,300
6352,632
6353,272
6353,608
6354,248
6354,578
6355,218
6355,536
6356,176
6356,508
6357,148
6357,477
6358,117
6358,453
6359,93
6359,430
6360,70
6360,409
6361,49
6361,362
6361,683
6362,323
6362,645
6363,285
6363,613
6364,253
6364,587
6365,227
6365,558
6366,198
6366,527
6367,167
6367,477
6368,117
6368,428
6369,68
6369,382
6370,338
6370,666
6371,306
6371,625
6372,265
6372,581
6373,221
6373,521
6374,161
6374,457
6375,97
6375,413
6376,53
6376,377
6377,341
6377,676
6378,316
6378,651
6379,291
6379,612
6380,252
6380,571
6381,211
6381,551
6382,191
6382,526
6383,166
6383,498
6384,138
6384,462
6385,102
6385,417
6386,57
6386,363
6386,665
6387,305
6387,637
6388,277
6388,599
6389,239
6389,553
6390,193
6390,504
6391,144
6391,451
6392,91
6392,393
6393,334
6393,653
6394,293
6394,623
6395,263
6395,584
6396,224
6396,537
6397,177
6397,480
6398,120
6398,425
6399,65
6399,370
6399,685
6400,325
6400,656
6401,296
6401,618
6402,258
6402,568
6403,208
6403,509
6404,149
6404,463
6405,103
6405,410
6406,50
6406,365
6407,345
6407,664
6408,304
6408,614
6409,254
6409,557
6410,197
6410,505
6411,145
6411,458
6412,98
6412,415
6413,55
6413,392
6414,359
6414,674
6415,314
6415,625
6416,265
6416,575
6417,215
6417,544
6418,184
6418,511
6419,151
6419,482
6420,122
6420,453
6421,93
6421,407
6422,47
6422,357
6422,678
6423,318
6423,648
6424,288
6424,616
6425,256
6425,592
6426,232
6426,560
6427,200
6427,505
6428,145
6428,455
6429,95
6429,414
6430,54
6430,381
6431,339
6431,658
6432,298
6432,611
6433,251
6433,539
6434,179
6434,474
6435,114
6435,420
6436,60
6436,381
6437,336
6437,647
6438,287
6438,605
6439,245
6439,546
6440,186
6440,477
6441,117
6441,421
6442,61
6442,392
6443,360
6443,683
6444,323
6444,644
6445,284
6445,594
6446,234
6446,534
6447,174
6447,484
6448,124
6448,445
6449,85
6449,411
6450,51
6450,358
6450,665
6451,305
6451,613
6452,253
6452,548
6453,188
6453,493
6454,133
6454,456
6455,96
6455,421
6456,61
6456,376
6456,679
6457,319
6457,636
6458,276
6458,581
6459,221
6459,526
6460,166
6460,492
6461,132
6461,465
6462,105
6462,423
6463,63
6463,368
6463,682
6464,322
6464,637
6465,277
6465,593
6466,233
6466,560
6467,200
6467,529
6468,169
6468,492
6469,132
6469,433
6470,73
6470,379
6471,327
6471,632
6472,272
6472,593
6473,233
6473,551
6474,191
6474,509
6475,149
6475,448
6476,88
6476,380
6477,339
6477,658
6478,298
6478,620
6479,260
6479,587
6480,227
6480,553
6481,193
6481,505
6482,145
6482,447
6483,87
6483,406
6484,46
6484,371
6485,328
6485,641
6486,281
6486,592
6487,232
6487,535
6488,175
6488,471
6489,111
6489,422
6490,62
6490,388
6491,346
6491,672
6492,312
6492,626
6493,266
6493,578
6494,218
6494,516
6495,156
6495,461
6496,101
6496,436
6497,76
6497,394
6498,342
6498,643
6499,283
6499,577
6500,217
6500,513
6501,153
6501,437
