train_idx,val_idx,test_idx
0,132.0,151.0
1,133.0,152.0
2,134.0,153.0
3,135.0,154.0
4,136.0,155.0
5,137.0,156.0
6,138.0,157.0
7,139.0,158.0
8,140.0,159.0
9,141.0,160.0
10,142.0,161.0
11,143.0,162.0
12,144.0,163.0
13,145.0,164.0
14,146.0,165.0
15,147.0,166.0
16,148.0,167.0
17,149.0,168.0
18,150.0,169.0
19,175.0,170.0
20,176.0,171.0
21,177.0,172.0
22,178.0,173.0
23,179.0,174.0
24,180.0,595.0
25,181.0,596.0
26,182.0,597.0
27,183.0,598.0
28,184.0,599.0
29,185.0,600.0
30,186.0,601.0
31,398.0,602.0
32,399.0,603.0
33,400.0,604.0
34,401.0,605.0
35,402.0,606.0
36,403.0,607.0
37,404.0,608.0
38,405.0,609.0
39,406.0,610.0
40,407.0,611.0
41,408.0,612.0
42,409.0,613.0
43,410.0,614.0
44,411.0,615.0
45,412.0,616.0
46,413.0,617.0
47,434.0,618.0
48,435.0,619.0
49,436.0,620.0
50,437.0,621.0
51,438.0,622.0
52,439.0,623.0
53,440.0,624.0
54,441.0,625.0
55,442.0,626.0
56,443.0,627.0
57,444.0,628.0
58,445.0,629.0
59,446.0,630.0
60,447.0,631.0
61,448.0,632.0
62,449.0,633.0
63,450.0,634.0
64,451.0,635.0
65,452.0,636.0
66,468.0,637.0
67,469.0,638.0
68,470.0,639.0
69,471.0,640.0
70,472.0,910.0
71,473.0,911.0
72,474.0,912.0
73,475.0,913.0
74,476.0,914.0
75,477.0,915.0
76,478.0,916.0
77,479.0,917.0
78,480.0,918.0
79,481.0,919.0
80,482.0,920.0
81,483.0,921.0
82,484.0,922.0
83,485.0,923.0
84,486.0,924.0
85,641.0,925.0
86,642.0,926.0
87,643.0,927.0
88,644.0,928.0
89,645.0,929.0
90,646.0,949.0
91,647.0,950.0
92,648.0,951.0
93,649.0,952.0
94,650.0,953.0
95,651.0,954.0
96,652.0,955.0
97,653.0,956.0
98,654.0,957.0
99,655.0,958.0
100,723.0,959.0
101,724.0,960.0
102,725.0,961.0
103,726.0,962.0
104,727.0,963.0
105,728.0,964.0
106,729.0,965.0
107,730.0,966.0
108,731.0,1021.0
109,732.0,1022.0
110,733.0,1023.0
111,734.0,1024.0
112,735.0,1025.0
113,736.0,1026.0
114,737.0,1027.0
115,738.0,1028.0
116,739.0,1029.0
117,740.0,1030.0
118,741.0,1031.0
119,742.0,1032.0
120,743.0,1033.0
121,744.0,1034.0
122,745.0,1035.0
123,746.0,1036.0
124,747.0,1037.0
125,748.0,1038.0
126,749.0,1039.0
127,750.0,1040.0
128,751.0,1041.0
129,752.0,1056.0
130,753.0,1057.0
131,754.0,1058.0
187,755.0,1059.0
188,756.0,1060.0
189,757.0,1061.0
190,758.0,1062.0
191,759.0,1063.0
192,760.0,1064.0
193,761.0,1065.0
194,762.0,1066.0
195,763.0,1067.0
196,764.0,1068.0
197,765.0,1069.0
198,766.0,1070.0
199,767.0,1071.0
200,768.0,1072.0
201,769.0,1073.0
202,770.0,1277.0
203,771.0,1278.0
204,772.0,1279.0
205,773.0,1280.0
206,774.0,1281.0
207,775.0,1282.0
208,776.0,1283.0
209,777.0,1284.0
210,778.0,1285.0
211,779.0,1286.0
212,780.0,1287.0
213,781.0,1288.0
214,782.0,1289.0
215,783.0,1290.0
216,784.0,1291.0
217,785.0,1292.0
218,786.0,1293.0
219,787.0,1294.0
220,788.0,1295.0
221,789.0,1296.0
222,790.0,1297.0
223,791.0,1298.0
224,792.0,1299.0
225,793.0,1300.0
226,794.0,1301.0
227,795.0,1302.0
228,796.0,1303.0
229,797.0,1304.0
230,798.0,1305.0
231,799.0,1306.0
232,800.0,1307.0
233,801.0,1308.0
234,802.0,1309.0
235,803.0,1310.0
236,804.0,1311.0
237,805.0,1312.0
238,999.0,1313.0
239,1000.0,1314.0
240,1001.0,1315.0
241,1002.0,1316.0
242,1003.0,1317.0
243,1004.0,1318.0
244,1005.0,1337.0
245,1006.0,1338.0
246,1007.0,1339.0
247,1008.0,1340.0
248,1009.0,1341.0
249,1010.0,1342.0
250,1011.0,1343.0
251,1012.0,1344.0
252,1013.0,1345.0
253,1014.0,1590.0
254,1015.0,1591.0
255,1016.0,1592.0
256,1017.0,1593.0
257,1018.0,1594.0
258,1019.0,1595.0
259,1020.0,1596.0
260,1144.0,1597.0
261,1145.0,1598.0
262,1146.0,1599.0
263,1147.0,1600.0
264,1148.0,1601.0
265,1149.0,1602.0
266,1150.0,1603.0
267,1151.0,1604.0
268,1152.0,1605.0
269,1153.0,1606.0
270,1154.0,1607.0
271,1155.0,1608.0
272,1156.0,1609.0
273,1157.0,1610.0
274,1158.0,1611.0
275,1159.0,1612.0
276,1160.0,1613.0
277,1206.0,1715.0
278,1207.0,1716.0
279,1208.0,1717.0
280,1209.0,1718.0
281,1210.0,1719.0
282,1211.0,1720.0
283,1212.0,1721.0
284,1213.0,1722.0
285,1214.0,1723.0
286,1215.0,1724.0
287,1216.0,1725.0
288,1217.0,1726.0
289,1218.0,1727.0
290,1219.0,1728.0
291,1220.0,1729.0
292,1221.0,1730.0
293,1222.0,1731.0
294,1223.0,1732.0
295,1224.0,1733.0
296,1225.0,1734.0
297,1226.0,1735.0
298,1227.0,1891.0
299,1228.0,1892.0
300,1229.0,1893.0
301,1230.0,1894.0
302,1231.0,1895.0
303,1232.0,1896.0
304,1539.0,1897.0
305,1540.0,1898.0
306,1541.0,1899.0
307,1542.0,1900.0
308,1543.0,1901.0
309,1544.0,1902.0
310,1545.0,1903.0
311,1546.0,1904.0
312,1547.0,1905.0
313,1548.0,1906.0
314,1549.0,1907.0
315,1550.0,1908.0
316,1551.0,1909.0
317,1552.0,1910.0
318,1553.0,1911.0
319,1554.0,1912.0
320,1555.0,1944.0
321,1556.0,1945.0
322,1557.0,1946.0
323,1558.0,1947.0
324,1559.0,1948.0
325,1560.0,1949.0
326,1561.0,1950.0
327,1562.0,1951.0
328,1563.0,1952.0
329,1614.0,1953.0
330,1615.0,1954.0
331,1616.0,1955.0
332,1617.0,1956.0
333,1618.0,1957.0
334,1619.0,1958.0
335,1620.0,1959.0
336,1621.0,1960.0
337,1622.0,1961.0
338,1623.0,1962.0
339,1624.0,1963.0
340,1625.0,1964.0
341,1626.0,1965.0
342,2194.0,1966.0
343,2195.0,1967.0
344,2196.0,1968.0
345,2197.0,1969.0
346,2198.0,1970.0
347,2199.0,1971.0
348,2200.0,1972.0
349,2201.0,1973.0
350,2202.0,1974.0
351,2203.0,1975.0
352,2204.0,1976.0
353,2205.0,1977.0
354,2328.0,1978.0
355,2329.0,1979.0
356,2330.0,1980.0
357,2331.0,1981.0
358,2332.0,1982.0
359,2333.0,1983.0
360,2334.0,1984.0
361,2335.0,1985.0
362,2336.0,1986.0
363,2337.0,1987.0
364,2338.0,1988.0
365,2339.0,1989.0
366,2340.0,1990.0
367,2341.0,1991.0
368,2481.0,1992.0
369,2482.0,1993.0
370,2483.0,1994.0
371,2484.0,1995.0
372,2485.0,1996.0
373,2486.0,1997.0
374,2487.0,1998.0
375,2488.0,1999.0
376,2489.0,2000.0
377,2490.0,2001.0
378,2491.0,2002.0
379,2492.0,2003.0
380,2493.0,2025.0
381,2494.0,2026.0
382,2495.0,2027.0
383,2496.0,2028.0
384,2497.0,2029.0
385,2498.0,2030.0
386,2499.0,2031.0
387,2500.0,2032.0
388,2501.0,2033.0
389,2502.0,2034.0
390,2503.0,2035.0
391,2504.0,2036.0
392,2505.0,2037.0
393,2506.0,2038.0
394,2507.0,2039.0
395,2508.0,2040.0
396,2509.0,2041.0
397,2510.0,2065.0
414,2511.0,2066.0
415,2539.0,2067.0
416,2540.0,2068.0
417,2541.0,2069.0
418,2542.0,2070.0
419,2543.0,2071.0
420,2544.0,2072.0
421,2545.0,2073.0
422,2546.0,2074.0
423,2547.0,2075.0
424,2548.0,2076.0
425,2549.0,2077.0
426,2550.0,2078.0
427,2703.0,2079.0
428,2704.0,2080.0
429,2705.0,2081.0
430,2706.0,2082.0
431,2707.0,2083.0
432,2708.0,2084.0
433,2709.0,2085.0
453,2710.0,2086.0
454,2711.0,2087.0
455,2712.0,2088.0
456,2713.0,2089.0
457,2714.0,2090.0
458,2715.0,2091.0
459,2716.0,2092.0
460,2717.0,2093.0
461,2718.0,2094.0
462,2719.0,2095.0
463,2720.0,2096.0
464,2721.0,2097.0
465,2792.0,2098.0
466,2793.0,2099.0
467,2794.0,2100.0
487,2795.0,2101.0
488,2796.0,2102.0
489,2797.0,2103.0
490,2798.0,2206.0
491,2799.0,2207.0
492,2800.0,2208.0
493,2801.0,2209.0
494,2802.0,2210.0
495,2803.0,2211.0
496,2804.0,2212.0
497,2805.0,2213.0
498,2806.0,2214.0
499,2807.0,2215.0
500,2808.0,2216.0
501,2809.0,2217.0
502,2810.0,2218.0
503,2811.0,2219.0
504,2812.0,2220.0
505,2813.0,2221.0
506,2814.0,2222.0
507,2815.0,2223.0
508,2816.0,2224.0
509,2817.0,2225.0
510,2818.0,2226.0
511,2819.0,2227.0
512,2820.0,2228.0
513,2821.0,2229.0
514,2822.0,2230.0
515,2823.0,2231.0
516,2824.0,2232.0
517,2825.0,2233.0
518,2826.0,2234.0
519,2827.0,2235.0
520,2927.0,2236.0
521,2928.0,2237.0
522,2929.0,2238.0
523,2930.0,2239.0
524,2931.0,2240.0
525,2932.0,2283.0
526,2933.0,2284.0
527,2934.0,2285.0
528,2935.0,2286.0
529,2936.0,2287.0
530,2937.0,2288.0
531,2938.0,2289.0
532,2939.0,2290.0
533,2940.0,2291.0
534,2941.0,2292.0
535,2942.0,2293.0
536,2943.0,2294.0
537,2944.0,2295.0
538,2945.0,2296.0
539,2946.0,2297.0
540,2947.0,2298.0
541,2948.0,2299.0
542,2949.0,2300.0
543,2950.0,2301.0
544,3018.0,2575.0
545,3019.0,2576.0
546,3020.0,2577.0
547,3021.0,2578.0
548,3022.0,2579.0
549,3023.0,2580.0
550,3024.0,2581.0
551,3025.0,2582.0
552,3026.0,2583.0
553,3027.0,2584.0
554,3028.0,2585.0
555,3029.0,2586.0
556,3030.0,2587.0
557,3031.0,2588.0
558,3032.0,2589.0
559,3033.0,2590.0
560,3034.0,2591.0
561,3035.0,2592.0
562,3036.0,2593.0
563,3037.0,2594.0
564,3038.0,2595.0
565,3039.0,2634.0
566,3040.0,2635.0
567,3062.0,2636.0
568,3063.0,2637.0
569,3064.0,2638.0
570,3065.0,2639.0
571,3066.0,2640.0
572,3067.0,2641.0
573,3068.0,2642.0
574,3069.0,2643.0
575,3070.0,2644.0
576,3071.0,2645.0
577,3072.0,2646.0
578,3073.0,2647.0
579,3074.0,2648.0
580,3075.0,2649.0
581,3076.0,2739.0
582,3077.0,2740.0
583,3118.0,2741.0
584,3119.0,2742.0
585,3120.0,2743.0
586,3121.0,2744.0
587,3122.0,2745.0
588,3123.0,2746.0
589,3124.0,2747.0
590,3125.0,2748.0
591,3126.0,2749.0
592,3127.0,2750.0
593,3128.0,2751.0
594,3129.0,2752.0
656,3130.0,2753.0
657,3131.0,2754.0
658,3132.0,2755.0
659,3133.0,2756.0
660,3134.0,2757.0
661,3135.0,2828.0
662,3136.0,2829.0
663,3137.0,2830.0
664,3151.0,2831.0
665,3152.0,2832.0
666,3153.0,2833.0
667,3154.0,2834.0
668,3155.0,2835.0
669,3156.0,2836.0
670,3157.0,2837.0
671,3158.0,2838.0
672,3159.0,2839.0
673,3160.0,2840.0
674,3161.0,2841.0
675,3162.0,2842.0
676,3163.0,2843.0
677,3177.0,2844.0
678,3178.0,2845.0
679,3179.0,2846.0
680,3180.0,2847.0
681,3181.0,2848.0
682,3182.0,2849.0
683,3183.0,2850.0
684,3184.0,2872.0
685,3185.0,2873.0
686,3186.0,2874.0
687,3187.0,2875.0
688,3188.0,2876.0
689,3189.0,2877.0
690,3190.0,2878.0
691,3191.0,2879.0
692,3192.0,2880.0
693,3193.0,2881.0
694,3194.0,2882.0
695,3195.0,2883.0
696,3196.0,2884.0
697,3233.0,2885.0
698,3234.0,2886.0
699,3235.0,2887.0
700,3236.0,2888.0
701,3237.0,2979.0
702,3238.0,2980.0
703,3239.0,2981.0
704,3240.0,2982.0
705,3241.0,2983.0
706,3242.0,2984.0
707,3243.0,2985.0
708,3244.0,2986.0
709,3245.0,2987.0
710,3246.0,2988.0
711,3247.0,2989.0
712,3248.0,2990.0
713,3249.0,2991.0
714,3250.0,2992.0
715,3251.0,2993.0
716,3252.0,3279.0
717,3253.0,3280.0
718,3254.0,3281.0
719,3255.0,3282.0
720,3256.0,3283.0
721,3330.0,3284.0
722,3331.0,3285.0
806,3332.0,3286.0
807,3333.0,3287.0
808,3334.0,3288.0
809,3335.0,3289.0
810,3336.0,3290.0
811,3337.0,3291.0
812,3338.0,3292.0
813,3339.0,3293.0
814,3340.0,3313.0
815,3341.0,3314.0
816,3342.0,3315.0
817,3343.0,3316.0
818,3344.0,3317.0
819,3345.0,3318.0
820,3346.0,3319.0
821,3347.0,3320.0
822,3348.0,3321.0
823,3349.0,3322.0
824,3350.0,3323.0
825,3351.0,3324.0
826,3352.0,3325.0
827,3353.0,3326.0
828,3354.0,3327.0
829,3355.0,3328.0
830,3356.0,3329.0
831,3357.0,3422.0
832,3358.0,3423.0
833,3359.0,3424.0
834,3360.0,3425.0
835,3361.0,3426.0
836,3362.0,3427.0
837,3363.0,3428.0
838,3364.0,3429.0
839,3365.0,3430.0
840,3366.0,3431.0
841,3367.0,3432.0
842,3368.0,3433.0
843,3369.0,3434.0
844,3370.0,3435.0
845,3371.0,3436.0
846,3372.0,3437.0
847,3373.0,3438.0
848,3374.0,3439.0
849,3375.0,3440.0
850,3376.0,3441.0
851,3377.0,3442.0
852,3378.0,3443.0
853,3534.0,3444.0
854,3535.0,3445.0
855,3536.0,3446.0
856,3537.0,3447.0
857,3538.0,3448.0
858,3539.0,3449.0
859,3540.0,3450.0
860,3541.0,3451.0
861,3542.0,3452.0
862,3543.0,3453.0
863,3544.0,3454.0
864,3545.0,3455.0
865,3546.0,3456.0
866,3547.0,3457.0
867,3548.0,3458.0
868,3549.0,3459.0
869,3550.0,3460.0
870,3551.0,3461.0
871,3552.0,3462.0
872,3553.0,3463.0
873,3554.0,3889.0
874,3555.0,3890.0
875,3556.0,3891.0
876,3557.0,3892.0
877,3558.0,3893.0
878,3559.0,3894.0
879,3560.0,3895.0
880,3561.0,3896.0
881,3562.0,3897.0
882,3563.0,3898.0
883,3564.0,3899.0
884,3565.0,3900.0
885,3566.0,3901.0
886,3567.0,3902.0
887,3568.0,3903.0
888,3569.0,3904.0
889,3570.0,3905.0
890,3571.0,3906.0
891,3572.0,3907.0
892,3573.0,3908.0
893,3574.0,3909.0
894,3575.0,3910.0
895,3576.0,3911.0
896,3577.0,3912.0
897,3578.0,3913.0
898,3579.0,3914.0
899,3580.0,3915.0
900,3581.0,3916.0
901,3582.0,3917.0
902,3583.0,3918.0
903,3584.0,3919.0
904,3585.0,3920.0
905,3586.0,3921.0
906,3587.0,3922.0
907,3588.0,3923.0
908,3589.0,3924.0
909,3590.0,3925.0
930,3591.0,3926.0
931,3592.0,3927.0
932,3593.0,3928.0
933,3723.0,3929.0
934,3724.0,3930.0
935,3725.0,3931.0
936,3726.0,3932.0
937,3727.0,3959.0
938,3728.0,3960.0
939,3729.0,3961.0
940,3730.0,3962.0
941,3731.0,3963.0
942,3732.0,3964.0
943,3733.0,3965.0
944,3734.0,3966.0
945,3735.0,3967.0
946,3736.0,3968.0
947,3737.0,3969.0
948,3738.0,3970.0
967,3739.0,3971.0
968,3740.0,3972.0
969,3813.0,3973.0
970,3814.0,3974.0
971,3815.0,3975.0
972,3816.0,3976.0
973,3817.0,3977.0
974,3818.0,3978.0
975,3819.0,3979.0
976,3820.0,3980.0
977,3821.0,3981.0
978,3822.0,3982.0
979,3823.0,3983.0
980,3824.0,3984.0
981,3825.0,3985.0
982,3826.0,3986.0
983,3827.0,3987.0
984,3848.0,3988.0
985,3849.0,4004.0
986,3850.0,4005.0
987,3851.0,4006.0
988,3852.0,4007.0
989,3853.0,4008.0
990,3854.0,4009.0
991,3855.0,4010.0
992,3856.0,4011.0
993,3857.0,4012.0
994,3858.0,4013.0
995,3859.0,4014.0
996,3860.0,4015.0
997,3861.0,4016.0
998,4286.0,4017.0
1042,4287.0,4018.0
1043,4288.0,4133.0
1044,4289.0,4134.0
1045,4290.0,4135.0
1046,4291.0,4136.0
1047,4292.0,4137.0
1048,4293.0,4138.0
1049,4294.0,4139.0
1050,4295.0,4140.0
1051,4296.0,4141.0
1052,4297.0,4142.0
1053,4298.0,4143.0
1054,4299.0,4144.0
1055,4300.0,4145.0
1074,4301.0,4146.0
1075,4302.0,4147.0
1076,4303.0,4148.0
1077,4304.0,4149.0
1078,4650.0,4150.0
1079,4651.0,4151.0
1080,4652.0,4152.0
1081,4653.0,4153.0
1082,4654.0,4154.0
1083,4655.0,4964.0
1084,4656.0,4965.0
1085,4657.0,4966.0
1086,4658.0,4967.0
1087,4659.0,4968.0
1088,4660.0,4969.0
1089,4661.0,4970.0
1090,4662.0,4971.0
1091,4663.0,4972.0
1092,4664.0,4973.0
1093,4665.0,4974.0
1094,4666.0,4975.0
1095,4667.0,4976.0
1096,4668.0,4977.0
1097,4669.0,5261.0
1098,4670.0,5262.0
1099,4671.0,5263.0
1100,4672.0,5264.0
1101,4673.0,5265.0
1102,4674.0,5266.0
1103,4675.0,5267.0
1104,4676.0,5268.0
1105,4677.0,5269.0
1106,4678.0,5270.0
1107,4679.0,5271.0
1108,4680.0,5272.0
1109,4681.0,5273.0
1110,4682.0,5274.0
1111,4683.0,5275.0
1112,4684.0,5276.0
1113,4685.0,5277.0
1114,4686.0,5278.0
1115,4687.0,5279.0
1116,4688.0,5280.0
1117,4689.0,5281.0
1118,4690.0,5282.0
1119,4691.0,5283.0
1120,4692.0,5284.0
1121,4693.0,5285.0
1122,4765.0,5286.0
1123,4766.0,5287.0
1124,4767.0,5288.0
1125,4768.0,5744.0
1126,4769.0,5745.0
1127,4770.0,5746.0
1128,4771.0,5747.0
1129,4772.0,5748.0
1130,4773.0,5749.0
1131,4774.0,5750.0
1132,4775.0,5751.0
1133,4776.0,5752.0
1134,4777.0,5753.0
1135,4778.0,5754.0
1136,4779.0,5755.0
1137,4780.0,5756.0
1138,4781.0,5757.0
1139,4782.0,5773.0
1140,4783.0,5774.0
1141,4784.0,5775.0
1142,4785.0,5776.0
1143,4786.0,5777.0
1161,4787.0,5778.0
1162,5098.0,5779.0
1163,5099.0,5780.0
1164,5100.0,5781.0
1165,5101.0,5782.0
1166,5102.0,5783.0
1167,5103.0,5784.0
1168,5104.0,5785.0
1169,5105.0,5786.0
1170,5106.0,5787.0
1171,5107.0,5788.0
1172,5108.0,5789.0
1173,5109.0,6035.0
1174,5110.0,6036.0
1175,5111.0,6037.0
1176,5112.0,6038.0
1177,5113.0,6039.0
1178,5417.0,6040.0
1179,5418.0,6041.0
1180,5419.0,6042.0
1181,5420.0,6043.0
1182,5421.0,6044.0
1183,5422.0,6045.0
1184,5423.0,6046.0
1185,5424.0,6047.0
1186,5425.0,6048.0
1187,5426.0,6049.0
1188,5427.0,6050.0
1189,5428.0,6051.0
1190,5429.0,6052.0
1191,5430.0,6053.0
1192,5431.0,6054.0
1193,5432.0,6055.0
1194,5433.0,6056.0
1195,5434.0,6057.0
1196,5435.0,6058.0
1197,5436.0,6059.0
1198,5437.0,6060.0
1199,5561.0,6061.0
1200,5562.0,6062.0
1201,5563.0,6063.0
1202,5564.0,6064.0
1203,5565.0,6065.0
1204,5566.0,6066.0
1205,5567.0,6067.0
1233,5568.0,6068.0
1234,5569.0,6069.0
1235,5570.0,6070.0
1236,5571.0,6071.0
1237,5572.0,6072.0
1238,5573.0,6073.0
1239,5574.0,6074.0
1240,5575.0,6075.0
1241,5576.0,6076.0
1242,5577.0,6077.0
1243,5578.0,6078.0
1244,5579.0,6079.0
1245,5580.0,6080.0
1246,5581.0,6081.0
1247,5582.0,6082.0
1248,5583.0,6083.0
1249,5584.0,6084.0
1250,5585.0,6085.0
1251,5586.0,6086.0
1252,5610.0,6168.0
1253,5611.0,6169.0
1254,5612.0,6170.0
1255,5613.0,6171.0
1256,5614.0,6172.0
1257,5615.0,6173.0
1258,5616.0,6174.0
1259,5617.0,6175.0
1260,5618.0,6176.0
1261,5619.0,6177.0
1262,5620.0,6178.0
1263,5621.0,6179.0
1264,5622.0,6180.0
1265,5623.0,6181.0
1266,5624.0,6182.0
1267,5625.0,6183.0
1268,5626.0,6184.0
1269,5729.0,6185.0
1270,5730.0,6186.0
1271,5731.0,6187.0
1272,5732.0,6188.0
1273,5733.0,6189.0
1274,5734.0,6190.0
1275,5735.0,6337.0
1276,5736.0,6338.0
1319,5737.0,6339.0
1320,5738.0,6340.0
1321,5739.0,6341.0
1322,5740.0,6342.0
1323,5741.0,6343.0
1324,5742.0,6344.0
1325,5743.0,6345.0
1326,5790.0,6346.0
1327,5791.0,6347.0
1328,5792.0,6348.0
1329,5793.0,6349.0
1330,5794.0,6350.0
1331,5795.0,6351.0
1332,5796.0,6352.0
1333,5797.0,6353.0
1334,5798.0,6354.0
1335,5799.0,6394.0
1336,5800.0,6395.0
1346,5801.0,6396.0
1347,5802.0,6397.0
1348,5803.0,6398.0
1349,5804.0,6399.0
1350,5805.0,6400.0
1351,5806.0,6401.0
1352,5807.0,6402.0
1353,5846.0,6403.0
1354,5847.0,6404.0
1355,5848.0,6405.0
1356,5849.0,6406.0
1357,5850.0,6407.0
1358,5851.0,6408.0
1359,5852.0,6409.0
1360,5853.0,6410.0
1361,5854.0,6411.0
1362,5855.0,6412.0
1363,5856.0,6413.0
1364,5857.0,6414.0
1365,5858.0,6415.0
1366,5859.0,6416.0
1367,5860.0,6417.0
1368,5861.0,6418.0
1369,5862.0,6419.0
1370,5863.0,6477.0
1371,5864.0,6478.0
1372,5865.0,6479.0
1373,5866.0,6480.0
1374,6154.0,6481.0
1375,6155.0,6482.0
1376,6156.0,6483.0
1377,6157.0,6484.0
1378,6158.0,6485.0
1379,6159.0,6486.0
1380,6160.0,6487.0
1381,6161.0,6488.0
1382,6162.0,6489.0
1383,6163.0,6490.0
1384,6164.0,6491.0
1385,6165.0,6492.0
1386,6166.0,6493.0
1387,6167.0,6494.0
1388,6355.0,6495.0
1389,6356.0,6496.0
1390,6357.0,6497.0
1391,6358.0,6646.0
1392,6359.0,6647.0
1393,6360.0,6648.0
1394,6361.0,6649.0
1395,6362.0,6650.0
1396,6363.0,6651.0
1397,6364.0,6652.0
1398,6365.0,6653.0
1399,6366.0,6654.0
1400,6367.0,6655.0
1401,6368.0,6656.0
1402,6369.0,6657.0
1403,6370.0,6658.0
1404,6371.0,6659.0
1405,6372.0,6660.0
1406,6373.0,6661.0
1407,6374.0,6662.0
1408,6498.0,6663.0
1409,6499.0,6664.0
1410,6500.0,6665.0
1411,6501.0,6795.0
1412,6502.0,6796.0
1413,6503.0,6797.0
1414,6504.0,6798.0
1415,6505.0,6799.0
1416,6506.0,6800.0
1417,6507.0,6801.0
1418,6508.0,6802.0
1419,6509.0,6803.0
1420,6510.0,6804.0
1421,6511.0,6805.0
1422,6512.0,6806.0
1423,6513.0,6807.0
1424,6514.0,6808.0
1425,6515.0,6809.0
1426,6686.0,6810.0
1427,6687.0,6811.0
1428,6688.0,6812.0
1429,6689.0,6813.0
1430,6690.0,6814.0
1431,6691.0,6815.0
1432,6692.0,6839.0
1433,6693.0,6840.0
1434,6694.0,6841.0
1435,6695.0,6842.0
1436,6696.0,6843.0
1437,6697.0,6844.0
1438,6698.0,6845.0
1439,6699.0,6846.0
1440,6700.0,6847.0
1441,6701.0,6848.0
1442,6702.0,6849.0
1443,6703.0,6850.0
1444,6975.0,6851.0
1445,6976.0,6852.0
1446,6977.0,6853.0
1447,6978.0,6854.0
1448,6979.0,6855.0
1449,6980.0,6856.0
1450,6981.0,7029.0
1451,6982.0,7030.0
1452,6983.0,7031.0
1453,6984.0,7032.0
1454,6985.0,7033.0
1455,6986.0,7034.0
1456,6987.0,7035.0
1457,6988.0,7036.0
1458,6989.0,7037.0
1459,6990.0,7038.0
1460,6991.0,7039.0
1461,6992.0,7040.0
1462,6993.0,7041.0
1463,6994.0,7191.0
1464,6995.0,7192.0
1465,6996.0,7193.0
1466,7042.0,7194.0
1467,7043.0,7195.0
1468,7044.0,7196.0
1469,7045.0,7197.0
1470,7046.0,7198.0
1471,7047.0,7199.0
1472,7048.0,7200.0
1473,7049.0,7201.0
1474,7050.0,7202.0
1475,7051.0,7203.0
1476,7052.0,7204.0
1477,7053.0,7205.0
1478,7054.0,7206.0
1479,7055.0,7207.0
1480,7056.0,7208.0
1481,7057.0,7209.0
1482,7128.0,7210.0
1483,7129.0,7211.0
1484,7130.0,7212.0
1485,7131.0,7213.0
1486,7132.0,7214.0
1487,7133.0,7215.0
1488,7134.0,7216.0
1489,7135.0,7495.0
1490,7136.0,7496.0
1491,7137.0,7497.0
1492,7138.0,7498.0
1493,7139.0,7499.0
1494,7140.0,7500.0
1495,7141.0,7501.0
1496,7142.0,7502.0
1497,7143.0,7503.0
1498,7144.0,7504.0
1499,7145.0,7505.0
1500,7146.0,7506.0
1501,7147.0,7507.0
1502,7148.0,7508.0
1503,7149.0,7509.0
1504,7150.0,7510.0
1505,7748.0,7511.0
1506,7749.0,7512.0
1507,7750.0,7513.0
1508,7751.0,7514.0
1509,7752.0,7515.0
1510,7753.0,7516.0
1511,7754.0,7517.0
1512,7755.0,7518.0
1513,7756.0,7519.0
1514,7757.0,7520.0
1515,7758.0,7521.0
1516,7759.0,7522.0
1517,7760.0,7523.0
1518,7761.0,7524.0
1519,7762.0,7525.0
1520,7763.0,7526.0
1521,7764.0,7527.0
1522,7765.0,7528.0
1523,7766.0,7529.0
1524,8036.0,7530.0
1525,8037.0,7531.0
1526,8038.0,7532.0
1527,8039.0,7533.0
1528,8040.0,7534.0
1529,8041.0,7535.0
1530,8042.0,7536.0
1531,8043.0,7872.0
1532,8044.0,7873.0
1533,8045.0,7874.0
1534,8046.0,7875.0
1535,8047.0,7876.0
1536,8048.0,7877.0
1537,8049.0,7878.0
1538,8050.0,7879.0
1564,8051.0,7880.0
1565,8052.0,7881.0
1566,8053.0,7882.0
1567,8054.0,7883.0
1568,8055.0,7884.0
1569,8056.0,7885.0
1570,8057.0,7886.0
1571,8088.0,7887.0
1572,8089.0,7927.0
1573,8090.0,7928.0
1574,8091.0,7929.0
1575,8092.0,7930.0
1576,8093.0,7931.0
1577,8094.0,7932.0
1578,8095.0,7933.0
1579,8096.0,7934.0
1580,8097.0,7935.0
1581,8098.0,7936.0
1582,8099.0,7937.0
1583,8100.0,7938.0
1584,8101.0,7939.0
1585,8102.0,7940.0
1586,8103.0,7941.0
1587,8104.0,8024.0
1588,8105.0,8025.0
1589,8106.0,8026.0
1627,8107.0,8027.0
1628,8108.0,8028.0
1629,8109.0,8029.0
1630,8110.0,8030.0
1631,8111.0,8031.0
1632,8112.0,8032.0
1633,8113.0,8033.0
1634,8114.0,8034.0
1635,8208.0,8035.0
1636,8209.0,8181.0
1637,8210.0,8182.0
1638,8211.0,8183.0
1639,8212.0,8184.0
1640,8213.0,8185.0
1641,8214.0,8186.0
1642,8215.0,8187.0
1643,8216.0,8188.0
1644,8217.0,8189.0
1645,8218.0,8190.0
1646,8219.0,8191.0
1647,8220.0,8192.0
1648,8221.0,8193.0
1649,8222.0,8194.0
1650,8223.0,8195.0
1651,8224.0,8196.0
1652,8225.0,8197.0
1653,8226.0,8198.0
1654,8227.0,8199.0
1655,8228.0,8200.0
1656,8229.0,8201.0
1657,8230.0,8202.0
1658,8231.0,8203.0
1659,8232.0,8204.0
1660,8233.0,8205.0
1661,8234.0,8206.0
1662,8484.0,8207.0
1663,8485.0,8541.0
1664,8486.0,8542.0
1665,8487.0,8543.0
1666,8488.0,8544.0
1667,8489.0,8545.0
1668,8490.0,8546.0
1669,8491.0,8547.0
1670,8492.0,8548.0
1671,8493.0,8549.0
1672,8494.0,8550.0
1673,8495.0,8551.0
1674,8496.0,8552.0
1675,8497.0,8553.0
1676,8498.0,8554.0
1677,8499.0,8555.0
1678,8500.0,8556.0
1679,8501.0,8557.0
1680,8502.0,8558.0
1681,8503.0,8699.0
1682,8504.0,8700.0
1683,8505.0,8701.0
1684,8506.0,8702.0
1685,8507.0,8703.0
1686,8508.0,8704.0
1687,8527.0,8705.0
1688,8528.0,8706.0
1689,8529.0,8707.0
1690,8530.0,8708.0
1691,8531.0,8709.0
1692,8532.0,8710.0
1693,8533.0,8711.0
1694,8534.0,8712.0
1695,8535.0,8713.0
1696,8536.0,8714.0
1697,8537.0,8715.0
1698,8538.0,8869.0
1699,8539.0,8870.0
1700,8540.0,8871.0
1701,8757.0,8872.0
1702,8758.0,8873.0
1703,8759.0,8874.0
1704,8760.0,8875.0
1705,8761.0,8876.0
1706,8762.0,8877.0
1707,8763.0,8878.0
1708,8764.0,8879.0
1709,8765.0,8880.0
1710,8766.0,8881.0
1711,8767.0,8882.0
1712,8768.0,8883.0
1713,8769.0,8884.0
1714,8770.0,8885.0
1736,8771.0,8886.0
1737,8772.0,8887.0
1738,8773.0,8888.0
1739,8940.0,8889.0
1740,8941.0,8890.0
1741,8942.0,8891.0
1742,8943.0,8892.0
1743,8944.0,8893.0
1744,8945.0,8894.0
1745,8946.0,8895.0
1746,8947.0,8896.0
1747,8948.0,8924.0
1748,8949.0,8925.0
1749,8950.0,8926.0
1750,8951.0,8927.0
1751,8952.0,8928.0
1752,8953.0,8929.0
1753,8954.0,8930.0
1754,8955.0,8931.0
1755,8956.0,8932.0
1756,8957.0,8933.0
1757,8958.0,8934.0
1758,8959.0,8935.0
1759,8960.0,8936.0
1760,8961.0,8937.0
1761,8962.0,8938.0
1762,9188.0,8939.0
1763,9189.0,9141.0
1764,9190.0,9142.0
1765,9191.0,9143.0
1766,9192.0,9144.0
1767,9193.0,9145.0
1768,9194.0,9146.0
1769,9195.0,9147.0
1770,9196.0,9148.0
1771,9197.0,9149.0
1772,9198.0,9150.0
1773,9199.0,9151.0
1774,9200.0,9152.0
1775,9201.0,9153.0
1776,9202.0,9154.0
1777,9203.0,9155.0
1778,9204.0,9156.0
1779,9205.0,9157.0
1780,9206.0,9158.0
1781,9207.0,9159.0
1782,9208.0,9160.0
1783,9209.0,9161.0
1784,9210.0,9162.0
1785,9211.0,9163.0
1786,9309.0,9164.0
1787,9310.0,9165.0
1788,9311.0,9293.0
1789,9312.0,9294.0
1790,9313.0,9295.0
1791,9314.0,9296.0
1792,9315.0,9297.0
1793,9316.0,9298.0
1794,9317.0,9299.0
1795,9318.0,9300.0
1796,9319.0,9301.0
1797,9320.0,9302.0
1798,9321.0,9303.0
1799,9322.0,9304.0
1800,9347.0,9305.0
1801,9348.0,9306.0
1802,9349.0,9307.0
1803,9350.0,9308.0
1804,9351.0,9393.0
1805,9352.0,9394.0
1806,9353.0,9395.0
1807,9354.0,9396.0
1808,9355.0,9397.0
1809,9356.0,9398.0
1810,9357.0,9399.0
1811,9358.0,9400.0
1812,9359.0,9401.0
1813,9360.0,9402.0
1814,9361.0,9403.0
1815,9606.0,9404.0
1816,9607.0,9405.0
1817,9608.0,9406.0
1818,9609.0,9407.0
1819,9610.0,9408.0
1820,9611.0,9409.0
1821,9612.0,9410.0
1822,9613.0,9411.0
1823,9614.0,9412.0
1824,9615.0,9413.0
1825,9616.0,9414.0
1826,9617.0,9415.0
1827,9618.0,9416.0
1828,9619.0,9417.0
1829,9620.0,9418.0
1830,9621.0,9419.0
1831,9622.0,9420.0
1832,9623.0,9421.0
1833,9624.0,9422.0
1834,9625.0,9423.0
1835,9626.0,9424.0
1836,9627.0,9425.0
1837,9628.0,9426.0
1838,9629.0,9427.0
1839,9630.0,9428.0
1840,9631.0,9429.0
1841,9632.0,9430.0
1842,10025.0,9431.0
1843,10026.0,9432.0
1844,10027.0,9433.0
1845,10028.0,9434.0
1846,10029.0,9435.0
1847,10030.0,9952.0
1848,10031.0,9953.0
1849,10032.0,9954.0
1850,10033.0,9955.0
1851,10034.0,9956.0
1852,10035.0,9957.0
1853,10036.0,9958.0
1854,10037.0,9959.0
1855,10038.0,9960.0
1856,10039.0,9961.0
1857,10040.0,9962.0
1858,10041.0,9963.0
1859,10042.0,9964.0
1860,10043.0,9965.0
1861,10227.0,9966.0
1862,10228.0,9967.0
1863,10229.0,10467.0
1864,10230.0,10468.0
1865,10231.0,10469.0
1866,10232.0,10470.0
1867,10233.0,10471.0
1868,10234.0,10472.0
1869,10235.0,10473.0
1870,10236.0,10474.0
1871,10237.0,10475.0
1872,10238.0,10476.0
1873,10239.0,10477.0
1874,10240.0,10478.0
1875,10241.0,10479.0
1876,10242.0,10480.0
1877,10243.0,10481.0
1878,10244.0,10482.0
1879,10245.0,10483.0
1880,10246.0,10557.0
1881,10247.0,10558.0
1882,10812.0,10559.0
1883,10813.0,10560.0
1884,10814.0,10561.0
1885,10815.0,10562.0
1886,10816.0,10563.0
1887,10817.0,10564.0
1888,10818.0,10565.0
1889,10819.0,10566.0
1890,10820.0,10567.0
1913,10821.0,10568.0
1914,10822.0,10569.0
1915,10823.0,10570.0
1916,10824.0,10571.0
1917,10825.0,10572.0
1918,10826.0,10573.0
1919,10827.0,10574.0
1920,10828.0,10575.0
1921,10829.0,10576.0
1922,10830.0,10577.0
1923,10831.0,10578.0
1924,10832.0,10603.0
1925,10833.0,10604.0
1926,10834.0,10605.0
1927,11226.0,10606.0
1928,11227.0,10607.0
1929,11228.0,10608.0
1930,11229.0,10609.0
1931,11230.0,10610.0
1932,11231.0,10611.0
1933,11232.0,10612.0
1934,11233.0,10613.0
1935,11234.0,10614.0
1936,11235.0,10615.0
1937,11236.0,10616.0
1938,11237.0,10617.0
1939,11238.0,10618.0
1940,11239.0,10619.0
1941,11240.0,10620.0
1942,11241.0,10621.0
1943,11242.0,10622.0
2004,11243.0,10623.0
2005,11244.0,10624.0
2006,11245.0,10625.0
2007,11246.0,10626.0
2008,11557.0,10733.0
2009,11558.0,10734.0
2010,11559.0,10735.0
2011,11560.0,10736.0
2012,11561.0,10737.0
2013,11562.0,10738.0
2014,11563.0,10739.0
2015,11564.0,10740.0
2016,11565.0,10741.0
2017,11566.0,10742.0
2018,11567.0,10743.0
2019,11568.0,10744.0
2020,11569.0,10745.0
2021,11570.0,10746.0
2022,11571.0,10747.0
2023,11572.0,10748.0
2024,11573.0,10749.0
2042,11574.0,10750.0
2043,11575.0,10751.0
2044,11576.0,10993.0
2045,11577.0,10994.0
2046,11578.0,10995.0
2047,11579.0,10996.0
2048,11580.0,10997.0
2049,11581.0,10998.0
2050,11582.0,10999.0
2051,11583.0,11000.0
2052,11584.0,11001.0
2053,11585.0,11002.0
2054,11586.0,11003.0
2055,11587.0,11004.0
2056,11588.0,11005.0
2057,11589.0,11006.0
2058,11590.0,11007.0
2059,11591.0,11008.0
2060,11592.0,11009.0
2061,11593.0,11010.0
2062,11594.0,11011.0
2063,11595.0,11012.0
2064,11596.0,11013.0
2104,11597.0,11014.0
2105,11598.0,11015.0
2106,11599.0,11016.0
2107,11600.0,11274.0
2108,11601.0,11275.0
2109,11602.0,11276.0
2110,11603.0,11277.0
2111,11604.0,11278.0
2112,11664.0,11279.0
2113,11665.0,11280.0
2114,11666.0,11281.0
2115,11667.0,11282.0
2116,11668.0,11283.0
2117,11669.0,11284.0
2118,11670.0,11285.0
2119,11671.0,11286.0
2120,11672.0,11287.0
2121,11673.0,11288.0
2122,11674.0,11289.0
2123,11675.0,11290.0
2124,11676.0,11291.0
2125,11677.0,11292.0
2126,11678.0,11375.0
2127,11679.0,11376.0
2128,11680.0,11377.0
2129,11681.0,11378.0
2130,11682.0,11379.0
2131,11683.0,11380.0
2132,11684.0,11381.0
2133,11865.0,11382.0
2134,11866.0,11383.0
2135,11867.0,11384.0
2136,11868.0,11385.0
2137,11869.0,11386.0
2138,11870.0,11387.0
2139,11871.0,11388.0
2140,11872.0,11389.0
2141,11873.0,11390.0
2142,11874.0,11391.0
2143,11875.0,11392.0
2144,11876.0,11393.0
2145,11877.0,11394.0
2146,11878.0,11395.0
2147,11879.0,11396.0
2148,11880.0,11397.0
2149,11881.0,11398.0
2150,11882.0,11421.0
2151,11957.0,11422.0
2152,11958.0,11423.0
2153,11959.0,11424.0
2154,11960.0,11425.0
2155,11961.0,11426.0
2156,11962.0,11427.0
2157,11963.0,11428.0
2158,11964.0,11429.0
2159,11965.0,11430.0
2160,11966.0,11431.0
2161,11967.0,11432.0
2162,11968.0,11433.0
2163,11969.0,11434.0
2164,11970.0,11435.0
2165,11971.0,11436.0
2166,11972.0,11437.0
2167,11973.0,11438.0
2168,11974.0,11439.0
2169,11975.0,11476.0
2170,11976.0,11477.0
2171,11977.0,11478.0
2172,12062.0,11479.0
2173,12063.0,11480.0
2174,12064.0,11481.0
2175,12065.0,11482.0
2176,12066.0,11483.0
2177,12067.0,11484.0
2178,12068.0,11485.0
2179,12069.0,11486.0
2180,12070.0,11487.0
2181,12071.0,11488.0
2182,12072.0,11489.0
2183,12073.0,11490.0
2184,12074.0,11491.0
2185,12075.0,11492.0
2186,12076.0,11493.0
2187,12077.0,11494.0
2188,12427.0,11495.0
2189,12428.0,11496.0
2190,12429.0,11497.0
2191,12430.0,11498.0
2192,12431.0,11499.0
2193,12432.0,11500.0
2241,12433.0,11501.0
2242,12434.0,11502.0
2243,12435.0,11503.0
2244,12436.0,11504.0
2245,12437.0,11505.0
2246,12438.0,11506.0
2247,12439.0,11507.0
2248,12440.0,11508.0
2249,12441.0,11509.0
2250,12442.0,11510.0
2251,12443.0,11511.0
2252,12444.0,11512.0
2253,12664.0,11513.0
2254,12665.0,11514.0
2255,12666.0,11515.0
2256,12667.0,11516.0
2257,12668.0,11517.0
2258,12669.0,11645.0
2259,12670.0,11646.0
2260,12671.0,11647.0
2261,12672.0,11648.0
2262,12673.0,11649.0
2263,12674.0,11650.0
2264,12675.0,11651.0
2265,12676.0,11652.0
2266,12677.0,11653.0
2267,12704.0,11654.0
2268,12705.0,11655.0
2269,12706.0,11656.0
2270,12707.0,11657.0
2271,12708.0,11658.0
2272,12709.0,11659.0
2273,12710.0,11660.0
2274,12711.0,11661.0
2275,12712.0,11662.0
2276,12713.0,11663.0
2277,12714.0,11730.0
2278,12715.0,11731.0
2279,12716.0,11732.0
2280,12717.0,11733.0
2281,12718.0,11734.0
2282,12719.0,11735.0
2302,12720.0,11736.0
2303,12721.0,11737.0
2304,12722.0,11738.0
2305,12723.0,11739.0
2306,12724.0,11740.0
2307,12725.0,11741.0
2308,12726.0,11742.0
2309,12808.0,11743.0
2310,12809.0,11744.0
2311,12810.0,11745.0
2312,12811.0,11746.0
2313,12812.0,11747.0
2314,12813.0,11748.0
2315,12814.0,11749.0
2316,12815.0,11750.0
2317,12816.0,11901.0
2318,12817.0,11902.0
2319,12818.0,11903.0
2320,12819.0,11904.0
2321,12820.0,11905.0
2322,12821.0,11906.0
2323,12822.0,11907.0
2324,12823.0,11908.0
2325,12824.0,11909.0
2326,12825.0,11910.0
2327,12826.0,11911.0
2342,12827.0,11912.0
2343,12828.0,11913.0
2344,12829.0,11914.0
2345,12830.0,11915.0
2346,12996.0,11916.0
2347,12997.0,11917.0
2348,12998.0,11918.0
2349,12999.0,11919.0
2350,13000.0,11920.0
2351,13001.0,12019.0
2352,13002.0,12020.0
2353,13003.0,12021.0
2354,13004.0,12022.0
2355,13005.0,12023.0
2356,13006.0,12024.0
2357,13007.0,12025.0
2358,13008.0,12026.0
2359,13009.0,12027.0
2360,13010.0,12028.0
2361,13011.0,12029.0
2362,13012.0,12030.0
2363,13034.0,12031.0
2364,13035.0,12032.0
2365,13036.0,12033.0
2366,13037.0,12034.0
2367,13038.0,12035.0
2368,13039.0,12036.0
2369,13040.0,12037.0
2370,13041.0,12038.0
2371,13042.0,12039.0
2372,13043.0,12040.0
2373,13044.0,12041.0
2374,13045.0,12078.0
2375,13046.0,12079.0
2376,13047.0,12080.0
2377,13048.0,12081.0
2378,13049.0,12082.0
2379,13050.0,12083.0
2380,13051.0,12084.0
2381,13052.0,12085.0
2382,13053.0,12086.0
2383,13054.0,12087.0
2384,13055.0,12088.0
2385,13056.0,12089.0
2386,13057.0,12090.0
2387,13058.0,12091.0
2388,13059.0,12092.0
2389,13060.0,12093.0
2390,13061.0,12094.0
2391,13062.0,12095.0
2392,13279.0,12096.0
2393,13280.0,12097.0
2394,13281.0,12098.0
2395,13282.0,12099.0
2396,13283.0,12100.0
2397,13284.0,12178.0
2398,13285.0,12179.0
2399,13286.0,12180.0
2400,13287.0,12181.0
2401,13288.0,12182.0
2402,13289.0,12183.0
2403,13290.0,12184.0
2404,13291.0,12185.0
2405,13292.0,12186.0
2406,13293.0,12187.0
2407,13294.0,12188.0
2408,13295.0,12189.0
2409,13296.0,12190.0
2410,13297.0,12191.0
2411,13298.0,12192.0
2412,13299.0,12193.0
2413,13300.0,12194.0
2414,13301.0,12195.0
2415,13302.0,12196.0
2416,13303.0,12197.0
2417,13402.0,12198.0
2418,13403.0,12199.0
2419,13404.0,12200.0
2420,13405.0,12201.0
2421,13406.0,12202.0
2422,13407.0,12203.0
2423,13408.0,12204.0
2424,13409.0,12205.0
2425,13410.0,12206.0
2426,13411.0,12207.0
2427,13412.0,12208.0
2428,13413.0,12209.0
2429,13414.0,12210.0
2430,13415.0,12211.0
2431,13416.0,12212.0
2432,13417.0,12213.0
2433,13418.0,12214.0
2434,13419.0,12215.0
2435,13420.0,12216.0
2436,13421.0,12217.0
2437,13422.0,12218.0
2438,13423.0,12219.0
2439,13424.0,12220.0
2440,13425.0,12221.0
2441,13426.0,12222.0
2442,13427.0,12223.0
2443,13428.0,12224.0
2444,13429.0,12225.0
2445,13430.0,12226.0
2446,13649.0,12227.0
2447,13650.0,12228.0
2448,13651.0,12229.0
2449,13652.0,12230.0
2450,13653.0,12466.0
2451,13654.0,12467.0
2452,13655.0,12468.0
2453,13656.0,12469.0
2454,13657.0,12470.0
2455,13658.0,12471.0
2456,13659.0,12472.0
2457,13660.0,12473.0
2458,13661.0,12474.0
2459,13662.0,12475.0
2460,13663.0,12476.0
2461,13664.0,12477.0
2462,13665.0,12478.0
2463,13666.0,12479.0
2464,13667.0,12480.0
2465,13668.0,12481.0
2466,13669.0,12482.0
2467,13670.0,12483.0
2468,13671.0,12484.0
2469,13672.0,12485.0
2470,13673.0,12486.0
2471,13674.0,12487.0
2472,13675.0,12488.0
2473,13676.0,12489.0
2474,13677.0,12490.0
2475,13678.0,12787.0
2476,13679.0,12788.0
2477,13680.0,12789.0
2478,13681.0,12790.0
2479,13682.0,12791.0
2480,13683.0,12792.0
2512,13684.0,12793.0
2513,13685.0,12794.0
2514,13686.0,12795.0
2515,13705.0,12796.0
2516,13706.0,12797.0
2517,13707.0,12798.0
2518,13708.0,12799.0
2519,13709.0,12800.0
2520,13710.0,12801.0
2521,13711.0,12802.0
2522,13712.0,12803.0
2523,13713.0,12804.0
2524,13714.0,12805.0
2525,13715.0,12806.0
2526,13716.0,12807.0
2527,13717.0,12918.0
2528,13718.0,12919.0
2529,13719.0,12920.0
2530,13720.0,12921.0
2531,13721.0,12922.0
2532,13895.0,12923.0
2533,13896.0,12924.0
2534,13897.0,12925.0
2535,13898.0,12926.0
2536,13899.0,12927.0
2537,13900.0,12928.0
2538,13901.0,12929.0
2551,13902.0,12930.0
2552,13903.0,12931.0
2553,13904.0,12932.0
2554,13905.0,12933.0
2555,13906.0,12934.0
2556,13907.0,12935.0
2557,13908.0,12936.0
2558,13909.0,12937.0
2559,13910.0,13349.0
2560,13911.0,13350.0
2561,13912.0,13351.0
2562,13913.0,13352.0
2563,13914.0,13353.0
2564,14028.0,13354.0
2565,14029.0,13355.0
2566,14030.0,13356.0
2567,14031.0,13357.0
2568,14032.0,13358.0
2569,14033.0,13359.0
2570,14034.0,13360.0
2571,14035.0,13361.0
2572,14036.0,13362.0
2573,14037.0,13363.0
2574,14038.0,13364.0
2596,14039.0,13476.0
2597,14040.0,13477.0
2598,14041.0,13478.0
2599,14042.0,13479.0
2600,14043.0,13480.0
2601,14044.0,13481.0
2602,14045.0,13482.0
2603,14046.0,13483.0
2604,14069.0,13484.0
2605,14070.0,13485.0
2606,14071.0,13486.0
2607,14072.0,13487.0
2608,14073.0,13488.0
2609,14074.0,13489.0
2610,14075.0,13490.0
2611,14076.0,13491.0
2612,14077.0,13492.0
2613,14078.0,13851.0
2614,14079.0,13852.0
2615,14080.0,13853.0
2616,14081.0,13854.0
2617,14082.0,13855.0
2618,14083.0,13856.0
2619,14084.0,13857.0
2620,14085.0,13858.0
2621,14086.0,13859.0
2622,14087.0,13860.0
2623,14373.0,13861.0
2624,14374.0,13862.0
2625,14375.0,13863.0
2626,14376.0,13864.0
2627,14377.0,13865.0
2628,14378.0,13866.0
2629,14379.0,13867.0
2630,14380.0,13868.0
2631,14381.0,13869.0
2632,14382.0,13870.0
2633,14383.0,13950.0
2650,14384.0,13951.0
2651,14385.0,13952.0
2652,14386.0,13953.0
2653,14387.0,13954.0
2654,14388.0,13955.0
2655,14389.0,13956.0
2656,14390.0,13957.0
2657,14391.0,13958.0
2658,14392.0,13959.0
2659,14393.0,13960.0
2660,14394.0,13961.0
2661,14395.0,13962.0
2662,14523.0,14088.0
2663,14524.0,14089.0
2664,14525.0,14090.0
2665,14526.0,14091.0
2666,14527.0,14092.0
2667,14528.0,14093.0
2668,14529.0,14094.0
2669,14530.0,14095.0
2670,14531.0,14096.0
2671,14532.0,14097.0
2672,14533.0,14098.0
2673,14534.0,14099.0
2674,14535.0,14100.0
2675,14536.0,14101.0
2676,14537.0,14102.0
2677,14538.0,14103.0
2678,14539.0,14104.0
2679,14540.0,14105.0
2680,14541.0,14188.0
2681,14639.0,14189.0
2682,14640.0,14190.0
2683,14641.0,14191.0
2684,14642.0,14192.0
2685,14643.0,14193.0
2686,14644.0,14194.0
2687,14645.0,14195.0
2688,14646.0,14196.0
2689,14647.0,14197.0
2690,14648.0,14198.0
2691,14649.0,14199.0
2692,14650.0,14200.0
2693,14651.0,14201.0
2694,14652.0,14202.0
2695,14653.0,14203.0
2696,14654.0,14204.0
2697,14655.0,14205.0
2698,14656.0,14206.0
2699,14657.0,14207.0
2700,14658.0,14396.0
2701,14659.0,14397.0
2702,14660.0,14398.0
2722,14661.0,14399.0
2723,14662.0,14400.0
2724,14663.0,14401.0
2725,14664.0,14402.0
2726,14665.0,14403.0
2727,14666.0,14404.0
2728,14924.0,14405.0
2729,14925.0,14406.0
2730,14926.0,14407.0
2731,14927.0,14408.0
2732,14928.0,14409.0
2733,14929.0,14434.0
2734,14930.0,14435.0
2735,14931.0,14436.0
2736,14932.0,14437.0
2737,14933.0,14438.0
2738,14934.0,14439.0
2758,14935.0,14440.0
2759,14936.0,14441.0
2760,14937.0,14442.0
2761,14938.0,14443.0
2762,14939.0,14444.0
2763,14940.0,14445.0
2764,14941.0,14446.0
2765,14942.0,14447.0
2766,14943.0,14448.0
2767,14944.0,14449.0
2768,14945.0,14450.0
2769,14969.0,14451.0
2770,14970.0,14452.0
2771,14971.0,14453.0
2772,14972.0,14454.0
2773,14973.0,14455.0
2774,14974.0,14456.0
2775,14975.0,14457.0
2776,14976.0,14458.0
2777,14977.0,14459.0
2778,14978.0,14460.0
2779,14979.0,14461.0
2780,14980.0,14462.0
2781,14981.0,14463.0
2782,14982.0,14464.0
2783,14983.0,14465.0
2784,14984.0,14466.0
2785,14985.0,14467.0
2786,14986.0,14468.0
2787,15123.0,14469.0
2788,15124.0,14470.0
2789,15125.0,14471.0
2790,15126.0,14472.0
2791,15127.0,14473.0
2851,15128.0,14474.0
2852,15129.0,14475.0
2853,15130.0,14476.0
2854,15131.0,14477.0
2855,15132.0,14478.0
2856,15133.0,14479.0
2857,15134.0,14480.0
2858,15135.0,14481.0
2859,15136.0,14482.0
2860,15137.0,14483.0
2861,15138.0,14508.0
2862,15139.0,14509.0
2863,15140.0,14510.0
2864,15264.0,14511.0
2865,15265.0,14512.0
2866,15266.0,14513.0
2867,15267.0,14514.0
2868,15268.0,14515.0
2869,15269.0,14516.0
2870,15270.0,14517.0
2871,15271.0,14518.0
2889,15272.0,14519.0
2890,15273.0,14520.0
2891,15274.0,14521.0
2892,15275.0,14522.0
2893,15276.0,14559.0
2894,15277.0,14560.0
2895,15278.0,14561.0
2896,15279.0,14562.0
2897,15280.0,14563.0
2898,15281.0,14564.0
2899,15282.0,14565.0
2900,15283.0,14566.0
2901,15284.0,14567.0
2902,15285.0,14568.0
2903,15286.0,14569.0
2904,15287.0,14570.0
2905,15288.0,14571.0
2906,15289.0,14620.0
2907,15290.0,14621.0
2908,15291.0,14622.0
2909,15292.0,14623.0
2910,15293.0,14624.0
2911,15294.0,14625.0
2912,15295.0,14626.0
2913,15296.0,14627.0
2914,15297.0,14628.0
2915,15298.0,14629.0
2916,15299.0,14630.0
2917,15300.0,14631.0
2918,15301.0,14632.0
2919,15302.0,14633.0
2920,15303.0,14634.0
2921,15304.0,14635.0
2922,15305.0,14636.0
2923,15306.0,14637.0
2924,15508.0,14638.0
2925,15509.0,14688.0
2926,15510.0,14689.0
2951,15511.0,14690.0
2952,15512.0,14691.0
2953,15513.0,14692.0
2954,15514.0,14693.0
2955,15515.0,14694.0
2956,15516.0,14695.0
2957,15517.0,14696.0
2958,15518.0,14697.0
2959,15519.0,14698.0
2960,15520.0,14699.0
2961,15521.0,14700.0
2962,15522.0,14701.0
2963,15523.0,14702.0
2964,15524.0,14703.0
2965,15525.0,15307.0
2966,15526.0,15308.0
2967,15527.0,15309.0
2968,15528.0,15310.0
2969,15529.0,15311.0
2970,15530.0,15312.0
2971,15531.0,15313.0
2972,15532.0,15314.0
2973,15598.0,15315.0
2974,15599.0,15316.0
2975,15600.0,15317.0
2976,15601.0,15318.0
2977,15602.0,15319.0
2978,15603.0,15320.0
2994,15604.0,15321.0
2995,15605.0,15322.0
2996,15606.0,15323.0
2997,15607.0,15324.0
2998,15608.0,15325.0
2999,15609.0,15326.0
3000,15610.0,15380.0
3001,15611.0,15381.0
3002,15612.0,15382.0
3003,15613.0,15383.0
3004,15614.0,15384.0
3005,15615.0,15385.0
3006,15616.0,15386.0
3007,15617.0,15387.0
3008,15618.0,15388.0
3009,15619.0,15389.0
3010,15620.0,15390.0
3011,15621.0,15391.0
3012,16509.0,15392.0
3013,16510.0,15393.0
3014,16511.0,15394.0
3015,16512.0,15395.0
3016,16513.0,15622.0
3017,16514.0,15623.0
3041,16515.0,15624.0
3042,16516.0,15625.0
3043,16517.0,15626.0
3044,16518.0,15627.0
3045,16519.0,15628.0
3046,16520.0,15629.0
3047,16521.0,15630.0
3048,16522.0,15631.0
3049,16523.0,15632.0
3050,16524.0,15633.0
3051,16525.0,15634.0
3052,16526.0,15635.0
3053,16527.0,15817.0
3054,16528.0,15818.0
3055,16529.0,15819.0
3056,16530.0,15820.0
3057,16531.0,15821.0
3058,16532.0,15822.0
3059,16533.0,15823.0
3060,16534.0,15824.0
3061,16614.0,15825.0
3078,16615.0,15826.0
3079,16616.0,15827.0
3080,16617.0,15828.0
3081,16618.0,15829.0
3082,16619.0,15830.0
3083,16620.0,15831.0
3084,16621.0,15832.0
3085,16622.0,15833.0
3086,16623.0,15834.0
3087,16624.0,15835.0
3088,16625.0,15836.0
3089,16626.0,15837.0
3090,16627.0,15838.0
3091,16628.0,15839.0
3092,16629.0,15840.0
3093,16630.0,15869.0
3094,16631.0,15870.0
3095,16632.0,15871.0
3096,16633.0,15872.0
3097,16634.0,15873.0
3098,16635.0,15874.0
3099,16636.0,15875.0
3100,16637.0,15876.0
3101,16638.0,15877.0
3102,16639.0,15878.0
3103,16640.0,15879.0
3104,16641.0,15880.0
3105,16642.0,15881.0
3106,16643.0,15882.0
3107,16644.0,15883.0
3108,16645.0,15884.0
3109,16646.0,15885.0
3110,16647.0,15886.0
3111,16648.0,15887.0
3112,16649.0,15888.0
3113,16650.0,15953.0
3114,16651.0,15954.0
3115,16652.0,15955.0
3116,16653.0,15956.0
3117,16654.0,15957.0
3138,16655.0,15958.0
3139,16656.0,15959.0
3140,16657.0,15960.0
3141,16658.0,15961.0
3142,16659.0,15962.0
3143,16660.0,15963.0
3144,16831.0,15964.0
3145,16832.0,15965.0
3146,16833.0,15966.0
3147,16834.0,15967.0
3148,16835.0,15968.0
3149,16836.0,15969.0
3150,16837.0,15970.0
3164,16838.0,16086.0
3165,16839.0,16087.0
3166,16840.0,16088.0
3167,16841.0,16089.0
3168,16842.0,16090.0
3169,16843.0,16091.0
3170,16844.0,16092.0
3171,16845.0,16093.0
3172,16846.0,16094.0
3173,16847.0,16095.0
3174,16848.0,16096.0
3175,16849.0,16097.0
3176,16850.0,16098.0
3197,16851.0,16099.0
3198,16909.0,16100.0
3199,16910.0,16101.0
3200,16911.0,16102.0
3201,16912.0,16103.0
3202,16913.0,16104.0
3203,16914.0,16105.0
3204,16915.0,16106.0
3205,16916.0,16107.0
3206,16917.0,16108.0
3207,16918.0,16109.0
3208,16919.0,16110.0
3209,16920.0,16213.0
3210,16921.0,16214.0
3211,16922.0,16215.0
3212,16923.0,16216.0
3213,16924.0,16217.0
3214,16925.0,16218.0
3215,16926.0,16219.0
3216,16927.0,16220.0
3217,16928.0,16221.0
3218,16929.0,16222.0
3219,17117.0,16223.0
3220,17118.0,16224.0
3221,17119.0,16225.0
3222,17120.0,16293.0
3223,17121.0,16294.0
3224,17122.0,16295.0
3225,17123.0,16296.0
3226,17124.0,16297.0
3227,17125.0,16298.0
3228,17126.0,16299.0
3229,17127.0,16300.0
3230,17128.0,16301.0
3231,17129.0,16302.0
3232,17130.0,16303.0
3257,17131.0,16304.0
3258,17132.0,16305.0
3259,17133.0,16306.0
3260,17350.0,16307.0
3261,17351.0,16308.0
3262,17352.0,16309.0
3263,17353.0,16436.0
3264,17354.0,16437.0
3265,17355.0,16438.0
3266,17356.0,16439.0
3267,17357.0,16440.0
3268,17358.0,16441.0
3269,17359.0,16442.0
3270,17360.0,16443.0
3271,17361.0,16444.0
3272,17362.0,16445.0
3273,17363.0,16446.0
3274,17364.0,16447.0
3275,17365.0,16448.0
3276,17366.0,16449.0
3277,17367.0,16450.0
3278,17429.0,16451.0
3294,17430.0,16452.0
3295,17431.0,16453.0
3296,17432.0,16556.0
3297,17433.0,16557.0
3298,17434.0,16558.0
3299,17435.0,16559.0
3300,17436.0,16560.0
3301,17437.0,16561.0
3302,17438.0,16562.0
3303,17439.0,16563.0
3304,17440.0,16564.0
3305,17441.0,16565.0
3306,17442.0,16566.0
3307,17443.0,16567.0
3308,17444.0,16568.0
3309,17445.0,16569.0
3310,17446.0,16570.0
3311,17447.0,16571.0
3312,17448.0,16572.0
3379,17449.0,16573.0
3380,17804.0,16574.0
3381,17805.0,16575.0
3382,17806.0,16576.0
3383,17807.0,16577.0
3384,17808.0,16578.0
3385,17809.0,16579.0
3386,17810.0,16580.0
3387,17811.0,16581.0
3388,17812.0,16582.0
3389,17813.0,16583.0
3390,17814.0,16584.0
3391,17815.0,16585.0
3392,17816.0,16586.0
3393,17817.0,16587.0
3394,18060.0,16588.0
3395,18061.0,16589.0
3396,18062.0,16590.0
3397,18063.0,16591.0
3398,18064.0,16592.0
3399,18065.0,16593.0
3400,18066.0,16594.0
3401,18067.0,16595.0
3402,18068.0,16740.0
3403,18069.0,16741.0
3404,18070.0,16742.0
3405,18071.0,16743.0
3406,18072.0,16744.0
3407,18073.0,16745.0
3408,18074.0,16746.0
3409,18075.0,16747.0
3410,18076.0,16748.0
3411,18077.0,16749.0
3412,18078.0,16750.0
3413,18079.0,16751.0
3414,18098.0,16752.0
3415,18099.0,16753.0
3416,18100.0,16754.0
3417,18101.0,16755.0
3418,18102.0,16756.0
3419,18103.0,16757.0
3420,18104.0,16758.0
3421,18105.0,16759.0
3464,18106.0,16852.0
3465,18107.0,16853.0
3466,18108.0,16854.0
3467,18109.0,16855.0
3468,18563.0,16856.0
3469,18564.0,16857.0
3470,18565.0,16858.0
3471,18566.0,16859.0
3472,18567.0,16860.0
3473,18568.0,16861.0
3474,18569.0,16862.0
3475,18570.0,16863.0
3476,18571.0,16864.0
3477,18572.0,16865.0
3478,18573.0,16866.0
3479,18574.0,16867.0
3480,18575.0,16868.0
3481,18576.0,16869.0
3482,18577.0,16870.0
3483,18578.0,17054.0
3484,18579.0,17055.0
3485,18580.0,17056.0
3486,18581.0,17057.0
3487,18582.0,17058.0
3488,18583.0,17059.0
3489,18584.0,17060.0
3490,18585.0,17061.0
3491,18726.0,17062.0
3492,18727.0,17063.0
3493,18728.0,17064.0
3494,18729.0,17065.0
3495,18730.0,17066.0
3496,18731.0,17067.0
3497,18732.0,17281.0
3498,18733.0,17282.0
3499,18734.0,17283.0
3500,18735.0,17284.0
3501,18736.0,17285.0
3502,18737.0,17286.0
3503,18738.0,17287.0
3504,18739.0,17288.0
3505,18740.0,17289.0
3506,18741.0,17290.0
3507,18742.0,17291.0
3508,18743.0,17292.0
3509,18858.0,17293.0
3510,18859.0,17294.0
3511,18860.0,17295.0
3512,18861.0,17296.0
3513,18862.0,17297.0
3514,18863.0,17298.0
3515,18864.0,17299.0
3516,18865.0,17300.0
3517,18866.0,17301.0
3518,18867.0,17302.0
3519,18868.0,17303.0
3520,18869.0,17412.0
3521,18870.0,17413.0
3522,18871.0,17414.0
3523,18872.0,17415.0
3524,18873.0,17416.0
3525,18874.0,17417.0
3526,18875.0,17418.0
3527,18876.0,17419.0
3528,18877.0,17420.0
3529,18878.0,17421.0
3530,18944.0,17422.0
3531,18945.0,17423.0
3532,18946.0,17424.0
3533,18947.0,17425.0
3594,18948.0,17426.0
3595,18949.0,17427.0
3596,18950.0,17428.0
3597,18951.0,17564.0
3598,18952.0,17565.0
3599,18953.0,17566.0
3600,18954.0,17567.0
3601,18955.0,17568.0
3602,18956.0,17569.0
3603,18957.0,17570.0
3604,18958.0,17571.0
3605,18959.0,17572.0
3606,18960.0,17573.0
3607,18961.0,17574.0
3608,18962.0,17575.0
3609,18963.0,17576.0
3610,18964.0,17577.0
3611,18965.0,17617.0
3612,18966.0,17618.0
3613,18967.0,17619.0
3614,18968.0,17620.0
3615,18969.0,17621.0
3616,18970.0,17622.0
3617,19606.0,17623.0
3618,19607.0,17624.0
3619,19608.0,17625.0
3620,19609.0,17626.0
3621,19610.0,17627.0
3622,19611.0,17628.0
3623,19612.0,17629.0
3624,19613.0,17630.0
3625,19614.0,17654.0
3626,19615.0,17655.0
3627,19616.0,17656.0
3628,19617.0,17657.0
3629,19618.0,17658.0
3630,19619.0,17659.0
3631,19620.0,17660.0
3632,19621.0,17661.0
3633,19622.0,17662.0
3634,19623.0,17663.0
3635,19624.0,17664.0
3636,19625.0,17665.0
3637,19626.0,17666.0
3638,19627.0,17681.0
3639,19628.0,17682.0
3640,19984.0,17683.0
3641,19985.0,17684.0
3642,19986.0,17685.0
3643,19987.0,17686.0
3644,19988.0,17687.0
3645,19989.0,17688.0
3646,19990.0,17689.0
3647,19991.0,17690.0
3648,19992.0,17691.0
3649,19993.0,17692.0
3650,19994.0,17693.0
3651,19995.0,17694.0
3652,19996.0,17695.0
3653,19997.0,17696.0
3654,19998.0,17697.0
3655,19999.0,17698.0
3656,20000.0,17699.0
3657,20001.0,17700.0
3658,20002.0,17701.0
3659,20003.0,17702.0
3660,20004.0,17703.0
3661,20005.0,17818.0
3662,20031.0,17819.0
3663,20032.0,17820.0
3664,20033.0,17821.0
3665,20034.0,17822.0
3666,20035.0,17823.0
3667,20036.0,17824.0
3668,20037.0,17825.0
3669,20038.0,17826.0
3670,20039.0,17827.0
3671,20040.0,17828.0
3672,20041.0,17829.0
3673,20042.0,17830.0
3674,20043.0,17831.0
3675,20044.0,17832.0
3676,20045.0,17833.0
3677,20046.0,17991.0
3678,20047.0,17992.0
3679,20048.0,17993.0
3680,20049.0,17994.0
3681,20719.0,17995.0
3682,20720.0,17996.0
3683,20721.0,17997.0
3684,20722.0,17998.0
3685,20723.0,17999.0
3686,20724.0,18000.0
3687,20725.0,18001.0
3688,20726.0,18002.0
3689,20727.0,18003.0
3690,20728.0,18286.0
3691,20729.0,18287.0
3692,20730.0,18288.0
3693,20731.0,18289.0
3694,20732.0,18290.0
3695,20733.0,18291.0
3696,20734.0,18292.0
3697,20735.0,18293.0
3698,20736.0,18294.0
3699,20928.0,18295.0
3700,20929.0,18296.0
3701,20930.0,18297.0
3702,20931.0,18298.0
3703,20932.0,18299.0
3704,20933.0,18300.0
3705,20934.0,18301.0
3706,20935.0,18302.0
3707,20936.0,18303.0
3708,20937.0,18304.0
3709,20938.0,18661.0
3710,20939.0,18662.0
3711,20940.0,18663.0
3712,20941.0,18664.0
3713,20942.0,18665.0
3714,20943.0,18666.0
3715,20944.0,18667.0
3716,20945.0,18668.0
3717,21534.0,18669.0
3718,21535.0,18670.0
3719,21536.0,18671.0
3720,21537.0,18672.0
3721,21538.0,18673.0
3722,21539.0,18674.0
3741,21540.0,18675.0
3742,21541.0,18676.0
3743,21542.0,18677.0
3744,21543.0,18678.0
3745,21544.0,18679.0
3746,21545.0,18763.0
3747,21546.0,18764.0
3748,21547.0,18765.0
3749,21548.0,18766.0
3750,21549.0,18767.0
3751,21550.0,18768.0
3752,21551.0,18769.0
3753,21552.0,18770.0
3754,21553.0,18771.0
3755,21554.0,18772.0
3756,21659.0,18773.0
3757,21660.0,18774.0
3758,21661.0,18775.0
3759,21662.0,18776.0
3760,21663.0,18777.0
3761,21664.0,18778.0
3762,21665.0,18779.0
3763,21666.0,18780.0
3764,21667.0,18781.0
3765,21668.0,18782.0
3766,21669.0,18783.0
3767,21670.0,18784.0
3768,21727.0,18785.0
3769,21728.0,18786.0
3770,21729.0,18787.0
3771,21730.0,19028.0
3772,21731.0,19029.0
3773,21732.0,19030.0
3774,21733.0,19031.0
3775,21734.0,19032.0
3776,21735.0,19033.0
3777,21736.0,19034.0
3778,21737.0,19035.0
3779,21738.0,19036.0
3780,21739.0,19037.0
3781,21740.0,19038.0
3782,21741.0,19039.0
3783,21742.0,19040.0
3784,21743.0,19041.0
3785,21744.0,19042.0
3786,21745.0,19043.0
3787,21746.0,19044.0
3788,21863.0,19045.0
3789,21864.0,19046.0
3790,21865.0,19047.0
3791,21866.0,19060.0
3792,21867.0,19061.0
3793,21868.0,19062.0
3794,21869.0,19063.0
3795,21870.0,19064.0
3796,21871.0,19065.0
3797,21872.0,19066.0
3798,21873.0,19067.0
3799,21874.0,19068.0
3800,21875.0,19069.0
3801,21876.0,19070.0
3802,21877.0,19071.0
3803,21878.0,19072.0
3804,21879.0,19073.0
3805,21880.0,19074.0
3806,21881.0,19075.0
3807,21901.0,19076.0
3808,21902.0,19077.0
3809,21903.0,19078.0
3810,21904.0,19079.0
3811,21905.0,19080.0
3812,21906.0,19081.0
3828,21907.0,19211.0
3829,21908.0,19212.0
3830,21909.0,19213.0
3831,21910.0,19214.0
3832,21911.0,19215.0
3833,21912.0,19216.0
3834,21913.0,19217.0
3835,21914.0,19218.0
3836,21915.0,19219.0
3837,21916.0,19220.0
3838,21917.0,19221.0
3839,21918.0,19222.0
3840,21919.0,19223.0
3841,21920.0,19224.0
3842,21921.0,19225.0
3843,21922.0,19226.0
3844,21923.0,19227.0
3845,21924.0,19228.0
3846,21925.0,19229.0
3847,21926.0,19230.0
3862,21927.0,19231.0
3863,21928.0,19232.0
3864,21929.0,19233.0
3865,21930.0,19234.0
3866,21931.0,19235.0
3867,21932.0,19294.0
3868,21949.0,19295.0
3869,21950.0,19296.0
3870,21951.0,19297.0
3871,21952.0,19298.0
3872,21953.0,19299.0
3873,21954.0,19300.0
3874,21955.0,19301.0
3875,21956.0,19302.0
3876,21957.0,19303.0
3877,21958.0,19304.0
3878,21959.0,19305.0
3879,21960.0,19306.0
3880,21961.0,19307.0
3881,21962.0,19308.0
3882,21963.0,19309.0
3883,21964.0,19310.0
3884,21965.0,19311.0
3885,21966.0,19312.0
3886,22046.0,19327.0
3887,22047.0,19328.0
3888,22048.0,19329.0
3933,22049.0,19330.0
3934,22050.0,19331.0
3935,22051.0,19332.0
3936,22052.0,19333.0
3937,22053.0,19334.0
3938,22054.0,19335.0
3939,22055.0,19336.0
3940,22056.0,19337.0
3941,22057.0,19338.0
3942,22058.0,19339.0
3943,22059.0,19340.0
3944,22060.0,19341.0
3945,22061.0,19342.0
3946,22062.0,19343.0
3947,22274.0,19432.0
3948,22275.0,19433.0
3949,22276.0,19434.0
3950,22277.0,19435.0
3951,22278.0,19436.0
3952,22279.0,19437.0
3953,22280.0,19438.0
3954,22281.0,19439.0
3955,22282.0,19440.0
3956,22283.0,19441.0
3957,22284.0,19442.0
3958,22285.0,19443.0
3989,22286.0,19444.0
3990,22287.0,19445.0
3991,22288.0,19446.0
3992,22289.0,19447.0
3993,22290.0,19448.0
3994,22291.0,19449.0
3995,22292.0,19450.0
3996,22293.0,19451.0
3997,22294.0,19452.0
3998,22295.0,19453.0
3999,22296.0,19809.0
4000,22297.0,19810.0
4001,22298.0,19811.0
4002,22299.0,19812.0
4003,22300.0,19813.0
4019,22559.0,19814.0
4020,22560.0,19815.0
4021,22561.0,19816.0
4022,22562.0,19817.0
4023,22563.0,19818.0
4024,22564.0,19819.0
4025,22565.0,19886.0
4026,22566.0,19887.0
4027,22567.0,19888.0
4028,22568.0,19889.0
4029,22569.0,19890.0
4030,22570.0,19891.0
4031,22629.0,19892.0
4032,22630.0,19893.0
4033,22631.0,19894.0
4034,22632.0,19895.0
4035,22633.0,19896.0
4036,22634.0,19897.0
4037,22635.0,19898.0
4038,22636.0,19899.0
4039,22637.0,19900.0
4040,22638.0,19901.0
4041,22639.0,19902.0
4042,22640.0,19903.0
4043,22641.0,19904.0
4044,22642.0,19905.0
4045,22643.0,19906.0
4046,22663.0,19907.0
4047,22664.0,19961.0
4048,22665.0,19962.0
4049,22666.0,19963.0
4050,22667.0,19964.0
4051,22668.0,19965.0
4052,22669.0,19966.0
4053,22670.0,19967.0
4054,22671.0,19968.0
4055,22672.0,19969.0
4056,22673.0,19970.0
4057,22674.0,19971.0
4058,22675.0,19972.0
4059,22676.0,19973.0
4060,22677.0,19974.0
4061,22678.0,19975.0
4062,22679.0,19976.0
4063,22680.0,19977.0
4064,22681.0,19978.0
4065,22682.0,19979.0
4066,22683.0,19980.0
4067,22684.0,19981.0
4068,22893.0,19982.0
4069,22894.0,19983.0
4070,22895.0,20367.0
4071,22896.0,20368.0
4072,22897.0,20369.0
4073,22898.0,20370.0
4074,22899.0,20371.0
4075,22900.0,20372.0
4076,22901.0,20373.0
4077,22902.0,20374.0
4078,22903.0,20375.0
4079,22904.0,20376.0
4080,22905.0,20377.0
4081,22906.0,20378.0
4082,22907.0,20379.0
4083,22908.0,20380.0
4084,22909.0,20381.0
4085,22910.0,20382.0
4086,22911.0,20383.0
4087,22912.0,20384.0
4088,23267.0,20385.0
4089,23268.0,20386.0
4090,23269.0,20387.0
4091,23270.0,20520.0
4092,23271.0,20521.0
4093,23272.0,20522.0
4094,23273.0,20523.0
4095,23274.0,20524.0
4096,23275.0,20525.0
4097,23276.0,20526.0
4098,23277.0,20527.0
4099,23278.0,20528.0
4100,23279.0,20529.0
4101,23280.0,20530.0
4102,23281.0,20531.0
4103,23282.0,20532.0
4104,23651.0,20533.0
4105,23652.0,20534.0
4106,23653.0,20535.0
4107,23654.0,20559.0
4108,23655.0,20560.0
4109,23656.0,20561.0
4110,23657.0,20562.0
4111,23658.0,20563.0
4112,23659.0,20564.0
4113,23660.0,20565.0
4114,23661.0,20566.0
4115,23662.0,20567.0
4116,23663.0,20568.0
4117,23664.0,20569.0
4118,23665.0,20570.0
4119,23666.0,20571.0
4120,23667.0,20572.0
4121,23668.0,20573.0
4122,23669.0,20574.0
4123,23670.0,20575.0
4124,23762.0,20576.0
4125,23763.0,20577.0
4126,23764.0,20578.0
4127,23765.0,20579.0
4128,23766.0,20580.0
4129,23767.0,20581.0
4130,23768.0,20582.0
4131,23769.0,20583.0
4132,23770.0,20584.0
4155,23771.0,20585.0
4156,23772.0,20586.0
4157,23773.0,20587.0
4158,23774.0,20588.0
4159,23775.0,20589.0
4160,23776.0,20590.0
4161,23777.0,20591.0
4162,23778.0,20592.0
4163,23779.0,20593.0
4164,23780.0,20594.0
4165,24263.0,20595.0
4166,24264.0,20596.0
4167,24265.0,20597.0
4168,24266.0,20598.0
4169,24267.0,20599.0
4170,24268.0,20600.0
4171,24269.0,20601.0
4172,24270.0,20602.0
4173,24271.0,20603.0
4174,24272.0,20604.0
4175,24273.0,20605.0
4176,24274.0,20606.0
4177,24275.0,20607.0
4178,24276.0,20608.0
4179,24277.0,20609.0
4180,24278.0,20610.0
4181,24279.0,20611.0
4182,24280.0,20612.0
4183,24281.0,20613.0
4184,24282.0,20880.0
4185,24283.0,20881.0
4186,24284.0,20882.0
4187,24285.0,20883.0
4188,24286.0,20884.0
4189,24287.0,20885.0
4190,24288.0,20886.0
4191,24289.0,20887.0
4192,24290.0,20888.0
4193,24291.0,20889.0
4194,24292.0,20890.0
4195,24293.0,20891.0
4196,24294.0,20892.0
4197,24295.0,20893.0
4198,24296.0,20894.0
4199,24297.0,20895.0
4200,24298.0,20896.0
4201,24423.0,20897.0
4202,24424.0,20898.0
4203,24425.0,20899.0
4204,24426.0,20900.0
4205,24427.0,20901.0
4206,24428.0,20902.0
4207,24429.0,20903.0
4208,24430.0,20904.0
4209,24431.0,20905.0
4210,24432.0,20906.0
4211,24433.0,21029.0
4212,24434.0,21030.0
4213,24435.0,21031.0
4214,24436.0,21032.0
4215,24437.0,21033.0
4216,24438.0,21034.0
4217,24439.0,21035.0
4218,24440.0,21036.0
4219,24441.0,21037.0
4220,24442.0,21038.0
4221,24443.0,21039.0
4222,24444.0,21040.0
4223,24557.0,21041.0
4224,24558.0,21042.0
4225,24559.0,21043.0
4226,24560.0,21044.0
4227,24561.0,21045.0
4228,24562.0,21046.0
4229,24563.0,21047.0
4230,24564.0,21048.0
4231,24565.0,21113.0
4232,24566.0,21114.0
4233,24567.0,21115.0
4234,24568.0,21116.0
4235,24569.0,21117.0
4236,24570.0,21118.0
4237,24571.0,21119.0
4238,24572.0,21120.0
4239,24573.0,21121.0
4240,24782.0,21122.0
4241,24783.0,21123.0
4242,24784.0,21124.0
4243,24785.0,21125.0
4244,24786.0,21126.0
4245,24787.0,21273.0
4246,24788.0,21274.0
4247,24789.0,21275.0
4248,24790.0,21276.0
4249,24791.0,21277.0
4250,24792.0,21278.0
4251,24793.0,21279.0
4252,24794.0,21280.0
4253,24795.0,21281.0
4254,24796.0,21282.0
4255,24797.0,21283.0
4256,24798.0,21284.0
4257,24799.0,21285.0
4258,24800.0,21286.0
4259,24801.0,21287.0
4260,24802.0,21288.0
4261,24844.0,21460.0
4262,24845.0,21461.0
4263,24846.0,21462.0
4264,24847.0,21463.0
4265,24848.0,21464.0
4266,24849.0,21465.0
4267,24850.0,21466.0
4268,24851.0,21467.0
4269,24852.0,21468.0
4270,24853.0,21469.0
4271,24854.0,21470.0
4272,24855.0,21471.0
4273,24856.0,21472.0
4274,24857.0,21473.0
4275,24858.0,21474.0
4276,24859.0,21475.0
4277,24860.0,21476.0
4278,25331.0,21477.0
4279,25332.0,21478.0
4280,25333.0,21479.0
4281,25334.0,21480.0
4282,25335.0,21481.0
4283,25336.0,21482.0
4284,25337.0,21607.0
4285,25338.0,21608.0
4305,25339.0,21609.0
4306,25340.0,21610.0
4307,25341.0,21611.0
4308,25342.0,21612.0
4309,25343.0,21613.0
4310,25344.0,21614.0
4311,25345.0,21615.0
4312,25346.0,21616.0
4313,25347.0,21617.0
4314,25348.0,21618.0
4315,25349.0,21619.0
4316,25350.0,21620.0
4317,25351.0,21621.0
4318,25352.0,21622.0
4319,25353.0,21967.0
4320,25613.0,21968.0
4321,25614.0,21969.0
4322,25615.0,21970.0
4323,25616.0,21971.0
4324,25617.0,21972.0
4325,25618.0,21973.0
4326,25619.0,21974.0
4327,25620.0,21975.0
4328,25621.0,21976.0
4329,25622.0,21977.0
4330,25623.0,21978.0
4331,25624.0,21979.0
4332,25625.0,21980.0
4333,25626.0,21981.0
4334,25627.0,21982.0
4335,25628.0,21983.0
4336,25629.0,21984.0
4337,25630.0,21985.0
4338,25631.0,21986.0
4339,25632.0,21987.0
4340,25633.0,21988.0
4341,25634.0,21989.0
4342,25635.0,21990.0
4343,25636.0,21991.0
4344,25637.0,21992.0
4345,25638.0,21993.0
4346,25639.0,21994.0
4347,25659.0,21995.0
4348,25660.0,21996.0
4349,25661.0,21997.0
4350,25662.0,21998.0
4351,25663.0,21999.0
4352,25664.0,22000.0
4353,25665.0,22001.0
4354,25666.0,22002.0
4355,25667.0,22003.0
4356,25668.0,22004.0
4357,25669.0,22005.0
4358,25670.0,22006.0
4359,25671.0,22133.0
4360,25672.0,22134.0
4361,25673.0,22135.0
4362,25674.0,22136.0
4363,25675.0,22137.0
4364,25676.0,22138.0
4365,25677.0,22139.0
4366,25678.0,22140.0
4367,25679.0,22141.0
4368,25680.0,22142.0
4369,25681.0,22143.0
4370,25880.0,22144.0
4371,25881.0,22145.0
4372,25882.0,22146.0
4373,25883.0,22147.0
4374,25884.0,22148.0
4375,25885.0,22149.0
4376,25886.0,22150.0
4377,25887.0,22151.0
4378,25888.0,22152.0
4379,25889.0,22153.0
4380,25890.0,22154.0
4381,25891.0,22155.0
4382,25892.0,22156.0
4383,25893.0,22157.0
4384,25894.0,22158.0
4385,25895.0,22159.0
4386,25896.0,22301.0
4387,25897.0,22302.0
4388,25898.0,22303.0
4389,25899.0,22304.0
4390,25900.0,22305.0
4391,25901.0,22306.0
4392,25902.0,22307.0
4393,25903.0,22308.0
4394,25904.0,22309.0
4395,25905.0,22310.0
4396,25906.0,22311.0
4397,25907.0,22312.0
4398,25908.0,22313.0
4399,25909.0,22314.0
4400,25910.0,22315.0
4401,25911.0,22316.0
4402,25912.0,22317.0
4403,25913.0,22318.0
4404,25914.0,22398.0
4405,25915.0,22399.0
4406,25916.0,22400.0
4407,25917.0,22401.0
4408,25918.0,22402.0
4409,25919.0,22403.0
4410,25920.0,22404.0
4411,25921.0,22405.0
4412,25922.0,22406.0
4413,25939.0,22407.0
4414,25940.0,22408.0
4415,25941.0,22409.0
4416,25942.0,22410.0
4417,25943.0,22411.0
4418,25944.0,22412.0
4419,25945.0,22413.0
4420,25946.0,22414.0
4421,25947.0,22415.0
4422,25948.0,22416.0
4423,25949.0,22417.0
4424,25950.0,22418.0
4425,25951.0,22419.0
4426,25952.0,22472.0
4427,25953.0,22473.0
4428,25954.0,22474.0
4429,25955.0,22475.0
4430,26180.0,22476.0
4431,26181.0,22477.0
4432,26182.0,22478.0
4433,26183.0,22479.0
4434,26184.0,22480.0
4435,26185.0,22481.0
4436,26186.0,22482.0
4437,26187.0,22483.0
4438,26188.0,22484.0
4439,26189.0,22485.0
4440,26190.0,22486.0
4441,26191.0,22487.0
4442,26192.0,22488.0
4443,26193.0,22489.0
4444,26194.0,22490.0
4445,26195.0,22491.0
4446,26196.0,22492.0
4447,26197.0,22516.0
4448,26198.0,22517.0
4449,26199.0,22518.0
4450,26552.0,22519.0
4451,26553.0,22520.0
4452,26554.0,22521.0
4453,26555.0,22522.0
4454,26556.0,22523.0
4455,26557.0,22524.0
4456,26558.0,22525.0
4457,26559.0,22526.0
4458,26560.0,22527.0
4459,26561.0,22528.0
4460,26562.0,22529.0
4461,26563.0,22530.0
4462,26564.0,22531.0
4463,26565.0,22571.0
4464,26566.0,22572.0
4465,26567.0,22573.0
4466,26568.0,22574.0
4467,26569.0,22575.0
4468,26570.0,22576.0
4469,26923.0,22577.0
4470,26924.0,22578.0
4471,26925.0,22579.0
4472,26926.0,22580.0
4473,26927.0,22581.0
4474,26928.0,22582.0
4475,26929.0,22583.0
4476,26930.0,22584.0
4477,26931.0,22585.0
4478,26932.0,22586.0
4479,26933.0,22587.0
4480,26934.0,22588.0
4481,26935.0,22589.0
4482,26936.0,22590.0
4483,26937.0,22591.0
4484,27122.0,22592.0
4485,27123.0,22972.0
4486,27124.0,22973.0
4487,27125.0,22974.0
4488,27126.0,22975.0
4489,27127.0,22976.0
4490,27128.0,22977.0
4491,27129.0,22978.0
4492,27130.0,22979.0
4493,27131.0,22980.0
4494,27132.0,22981.0
4495,27133.0,22982.0
4496,27134.0,22983.0
4497,27135.0,22984.0
4498,27136.0,22985.0
4499,27137.0,22986.0
4500,27138.0,22987.0
4501,27139.0,23160.0
4502,27573.0,23161.0
4503,27574.0,23162.0
4504,27575.0,23163.0
4505,27576.0,23164.0
4506,27577.0,23165.0
4507,27578.0,23166.0
4508,27579.0,23167.0
4509,27580.0,23168.0
4510,27581.0,23169.0
4511,27582.0,23170.0
4512,27583.0,23171.0
4513,27584.0,23172.0
4514,27585.0,23173.0
4515,27586.0,23174.0
4516,27587.0,23175.0
4517,27588.0,23176.0
4518,27589.0,23177.0
4519,27590.0,23178.0
4520,27591.0,23179.0
4521,27592.0,23180.0
4522,27593.0,23610.0
4523,27720.0,23611.0
4524,27721.0,23612.0
4525,27722.0,23613.0
4526,27723.0,23614.0
4527,27724.0,23615.0
4528,27725.0,23616.0
4529,27726.0,23617.0
4530,27727.0,23618.0
4531,27728.0,23619.0
4532,27729.0,23620.0
4533,27730.0,23621.0
4534,27731.0,23622.0
4535,27732.0,23623.0
4536,27733.0,23624.0
4537,27734.0,23625.0
4538,27735.0,23626.0
4539,27783.0,23934.0
4540,27784.0,23935.0
4541,27785.0,23936.0
4542,27786.0,23937.0
4543,27787.0,23938.0
4544,27788.0,23939.0
4545,27789.0,23940.0
4546,27790.0,23941.0
4547,27791.0,23942.0
4548,27792.0,23943.0
4549,27793.0,23944.0
4550,27794.0,23945.0
4551,27795.0,23946.0
4552,27796.0,23947.0
4553,27797.0,23948.0
4554,27798.0,23949.0
4555,27799.0,23950.0
4556,27800.0,23951.0
4557,27801.0,23952.0
4558,27802.0,23953.0
4559,27803.0,24381.0
4560,27804.0,24382.0
4561,27805.0,24383.0
4562,27806.0,24384.0
4563,27807.0,24385.0
4564,27808.0,24386.0
4565,27809.0,24387.0
4566,27956.0,24388.0
4567,27957.0,24389.0
4568,27958.0,24390.0
4569,27959.0,24391.0
4570,27960.0,24392.0
4571,27961.0,24393.0
4572,27962.0,24394.0
4573,27963.0,24395.0
4574,27964.0,24396.0
4575,27965.0,24397.0
4576,27966.0,24398.0
4577,27967.0,24399.0
4578,27968.0,24400.0
4579,27969.0,24401.0
4580,27970.0,24402.0
4581,27971.0,24403.0
4582,27972.0,24404.0
4583,27973.0,24405.0
4584,27974.0,24406.0
4585,27975.0,24407.0
4586,27976.0,24408.0
4587,27977.0,24409.0
4588,27978.0,24410.0
4589,28002.0,24411.0
4590,28003.0,24412.0
4591,28004.0,24413.0
4592,28005.0,24414.0
4593,28006.0,24415.0
4594,28007.0,24416.0
4595,28008.0,24417.0
4596,28009.0,24418.0
4597,28010.0,24419.0
4598,28011.0,24420.0
4599,28012.0,24421.0
4600,28013.0,24422.0
4601,28014.0,24516.0
4602,28015.0,24517.0
4603,28016.0,24518.0
4604,28017.0,24519.0
4605,28018.0,24520.0
4606,28019.0,24521.0
4607,28020.0,24522.0
4608,28021.0,24523.0
4609,28022.0,24524.0
4610,28169.0,24525.0
4611,28170.0,24526.0
4612,28171.0,24527.0
4613,28172.0,24528.0
4614,28173.0,24529.0
4615,28174.0,24530.0
4616,28175.0,24531.0
4617,28176.0,24532.0
4618,28177.0,24533.0
4619,28178.0,24534.0
4620,28179.0,24574.0
4621,28180.0,24575.0
4622,28181.0,24576.0
4623,28182.0,24577.0
4624,28183.0,24578.0
4625,28184.0,24579.0
4626,28185.0,24580.0
4627,28186.0,24581.0
4628,28187.0,24582.0
4629,28188.0,24583.0
4630,28280.0,24584.0
4631,28281.0,24585.0
4632,28282.0,24586.0
4633,28283.0,24587.0
4634,28284.0,24588.0
4635,28285.0,24589.0
4636,28286.0,24590.0
4637,28287.0,24601.0
4638,28288.0,24602.0
4639,28289.0,24603.0
4640,28290.0,24604.0
4641,28291.0,24605.0
4642,28292.0,24606.0
4643,28293.0,24607.0
4644,28294.0,24608.0
4645,28295.0,24609.0
4646,28296.0,24610.0
4647,28297.0,24611.0
4648,28298.0,24612.0
4649,28299.0,24613.0
4694,28300.0,24614.0
4695,28363.0,24615.0
4696,28364.0,24616.0
4697,28365.0,24617.0
4698,28366.0,24618.0
4699,28367.0,24619.0
4700,28368.0,24708.0
4701,28369.0,24709.0
4702,28370.0,24710.0
4703,28371.0,24711.0
4704,28372.0,24712.0
4705,28373.0,24713.0
4706,28374.0,24714.0
4707,28375.0,24715.0
4708,28376.0,24716.0
4709,28377.0,24717.0
4710,28378.0,24718.0
4711,28543.0,24719.0
4712,28544.0,24720.0
4713,28545.0,24721.0
4714,28546.0,24938.0
4715,28547.0,24939.0
4716,28548.0,24940.0
4717,28549.0,24941.0
4718,28550.0,24942.0
4719,28551.0,24943.0
4720,28552.0,24944.0
4721,28553.0,24945.0
4722,28554.0,24946.0
4723,28555.0,24947.0
4724,28556.0,24948.0
4725,28557.0,24949.0
4726,28558.0,24950.0
4727,28559.0,24951.0
4728,28560.0,24952.0
4729,28561.0,24953.0
4730,28562.0,24954.0
4731,28563.0,24955.0
4732,28564.0,24956.0
4733,28565.0,25574.0
4734,28566.0,25575.0
4735,28567.0,25576.0
4736,28829.0,25577.0
4737,28830.0,25578.0
4738,28831.0,25579.0
4739,28832.0,25580.0
4740,28833.0,25581.0
4741,28834.0,25582.0
4742,28835.0,25583.0
4743,28836.0,25584.0
4744,28837.0,25585.0
4745,28838.0,25586.0
4746,28839.0,25587.0
4747,28840.0,25588.0
4748,28841.0,25589.0
4749,28842.0,25590.0
4750,29197.0,25591.0
4751,29198.0,25640.0
4752,29199.0,25641.0
4753,29200.0,25642.0
4754,29201.0,25643.0
4755,29202.0,25644.0
4756,29203.0,25645.0
4757,29204.0,25646.0
4758,29205.0,25647.0
4759,29206.0,25648.0
4760,29207.0,25649.0
4761,29208.0,25650.0
4762,29209.0,25651.0
4763,29210.0,25652.0
4764,29211.0,25653.0
4788,29212.0,25654.0
4789,29213.0,25655.0
4790,29214.0,25656.0
4791,29215.0,25657.0
4792,29216.0,25658.0
4793,29217.0,25747.0
4794,29352.0,25748.0
4795,29353.0,25749.0
4796,29354.0,25750.0
4797,29355.0,25751.0
4798,29356.0,25752.0
4799,29357.0,25753.0
4800,29358.0,25754.0
4801,29359.0,25755.0
4802,29360.0,25756.0
4803,29361.0,25757.0
4804,29362.0,25758.0
4805,29363.0,25759.0
4806,29364.0,25760.0
4807,29365.0,25761.0
4808,29366.0,25762.0
4809,29367.0,25763.0
4810,29368.0,25764.0
4811,29369.0,25765.0
4812,29370.0,25766.0
4813,29371.0,25814.0
4814,29372.0,25815.0
4815,29391.0,25816.0
4816,29392.0,25817.0
4817,29393.0,25818.0
4818,29394.0,25819.0
4819,29395.0,25820.0
4820,29396.0,25821.0
4821,29397.0,25822.0
4822,29398.0,25823.0
4823,29399.0,25824.0
4824,29400.0,25825.0
4825,29401.0,26221.0
4826,29402.0,26222.0
4827,29403.0,26223.0
4828,29404.0,26224.0
4829,29405.0,26225.0
4830,29406.0,26226.0
4831,29407.0,26227.0
4832,29408.0,26228.0
4833,29409.0,26229.0
4834,29410.0,26230.0
4835,29411.0,26231.0
4836,29412.0,26232.0
4837,29413.0,26233.0
4838,29414.0,26234.0
4839,29415.0,26235.0
4840,29416.0,26236.0
4841,29417.0,26237.0
4842,29418.0,26238.0
4843,29823.0,26239.0
4844,29824.0,26240.0
4845,29825.0,26241.0
4846,29826.0,26242.0
4847,29827.0,26243.0
4848,29828.0,26244.0
4849,29829.0,26245.0
4850,29830.0,26246.0
4851,29831.0,26247.0
4852,29832.0,26248.0
4853,29833.0,26249.0
4854,29834.0,26250.0
4855,29835.0,26251.0
4856,29836.0,26252.0
4857,29837.0,26253.0
4858,29838.0,26254.0
4859,29839.0,26255.0
4860,29840.0,26256.0
4861,29841.0,26257.0
4862,29842.0,26258.0
4863,29843.0,26293.0
4864,29844.0,26294.0
4865,29845.0,26295.0
4866,29862.0,26296.0
4867,29863.0,26297.0
4868,29864.0,26298.0
4869,29865.0,26299.0
4870,29866.0,26300.0
4871,29867.0,26301.0
4872,29868.0,26302.0
4873,29869.0,26303.0
4874,29870.0,26304.0
4875,29871.0,26305.0
4876,29872.0,26306.0
4877,29873.0,26307.0
4878,29874.0,26308.0
4879,29875.0,26309.0
4880,29876.0,26310.0
4881,29877.0,26311.0
4882,29878.0,26312.0
4883,29879.0,26313.0
4884,29880.0,26351.0
4885,29881.0,26352.0
4886,29961.0,26353.0
4887,29962.0,26354.0
4888,29963.0,26355.0
4889,29964.0,26356.0
4890,29965.0,26357.0
4891,29966.0,26358.0
4892,29967.0,26359.0
4893,29968.0,26360.0
4894,29969.0,26361.0
4895,29970.0,26362.0
4896,29971.0,26363.0
4897,29972.0,26364.0
4898,29973.0,26365.0
4899,29974.0,26366.0
4900,29975.0,26367.0
4901,29976.0,26368.0
4902,29977.0,26369.0
4903,29978.0,26370.0
4904,30030.0,26371.0
4905,30031.0,26372.0
4906,30032.0,26373.0
4907,30033.0,26374.0
4908,30034.0,26375.0
4909,30035.0,26376.0
4910,30036.0,26377.0
4911,30037.0,26378.0
4912,30038.0,26379.0
4913,30039.0,26380.0
4914,30040.0,26381.0
4915,30041.0,26382.0
4916,31007.0,26383.0
4917,31008.0,26384.0
4918,31009.0,26385.0
4919,31010.0,26386.0
4920,31011.0,26387.0
4921,31012.0,26388.0
4922,31013.0,26389.0
4923,31014.0,26390.0
4924,31015.0,26391.0
4925,31016.0,26392.0
4926,31017.0,26393.0
4927,31018.0,26394.0
4928,31019.0,26395.0
4929,31354.0,26396.0
4930,31355.0,26397.0
4931,31356.0,26398.0
4932,31357.0,26399.0
4933,31358.0,26400.0
4934,31359.0,26401.0
4935,31360.0,26402.0
4936,31361.0,26403.0
4937,31362.0,26404.0
4938,31363.0,26405.0
4939,31364.0,26406.0
4940,31365.0,26497.0
4941,31366.0,26498.0
4942,31367.0,26499.0
4943,31368.0,26500.0
4944,31369.0,26501.0
4945,31370.0,26502.0
4946,31371.0,26503.0
4947,31372.0,26504.0
4948,31387.0,26505.0
4949,31388.0,26506.0
4950,31389.0,26507.0
4951,31390.0,26508.0
4952,31391.0,26509.0
4953,31392.0,26510.0
4954,31393.0,26511.0
4955,31394.0,26512.0
4956,31395.0,26513.0
4957,31396.0,26514.0
4958,31397.0,26533.0
4959,31398.0,26534.0
4960,31399.0,26535.0
4961,31400.0,26536.0
4962,31401.0,26537.0
4963,31402.0,26538.0
4978,31403.0,26539.0
4979,31404.0,26540.0
4980,31405.0,26541.0
4981,31406.0,26542.0
4982,31407.0,26543.0
4983,31408.0,26544.0
4984,31409.0,26545.0
4985,31410.0,26546.0
4986,31411.0,26547.0
4987,31412.0,26548.0
4988,31413.0,26549.0
4989,31414.0,26550.0
4990,31600.0,26551.0
4991,31601.0,26750.0
4992,31602.0,26751.0
4993,31603.0,26752.0
4994,31604.0,26753.0
4995,31605.0,26754.0
4996,31606.0,26755.0
4997,31607.0,26756.0
4998,31608.0,26757.0
4999,31609.0,26758.0
5000,31610.0,26759.0
5001,31611.0,26760.0
5002,31612.0,26761.0
5003,31613.0,26762.0
5004,31614.0,26763.0
5005,31615.0,26764.0
5006,31616.0,26765.0
5007,31617.0,26766.0
5008,31618.0,26767.0
5009,31619.0,26768.0
5010,31620.0,26769.0
5011,31621.0,26770.0
5012,31749.0,26771.0
5013,31750.0,26772.0
5014,31751.0,26773.0
5015,31752.0,26835.0
5016,31753.0,26836.0
5017,31754.0,26837.0
5018,31755.0,26838.0
5019,31756.0,26839.0
5020,31757.0,26840.0
5021,31758.0,26841.0
5022,31759.0,26842.0
5023,31760.0,26843.0
5024,31761.0,26844.0
5025,31762.0,26845.0
5026,31763.0,26846.0
5027,31764.0,26847.0
5028,31765.0,26904.0
5029,31766.0,26905.0
5030,31767.0,26906.0
5031,31768.0,26907.0
5032,31769.0,26908.0
5033,31770.0,26909.0
5034,31771.0,26910.0
5035,31877.0,26911.0
5036,31878.0,26912.0
5037,31879.0,26913.0
5038,31880.0,26914.0
5039,31881.0,26915.0
5040,31882.0,26916.0
5041,31883.0,26917.0
5042,31884.0,26918.0
5043,31885.0,26919.0
5044,31886.0,26920.0
5045,31887.0,26921.0
5046,31888.0,26922.0
5047,31889.0,26958.0
5048,31890.0,26959.0
5049,31891.0,26960.0
5050,31892.0,26961.0
5051,31893.0,26962.0
5052,31894.0,26963.0
5053,31895.0,26964.0
5054,31896.0,26965.0
5055,31897.0,26966.0
5056,31898.0,26967.0
5057,31928.0,26968.0
5058,31929.0,26969.0
5059,31930.0,26970.0
5060,31931.0,26971.0
5061,31932.0,26972.0
5062,31933.0,27034.0
5063,31934.0,27035.0
5064,31935.0,27036.0
5065,31936.0,27037.0
5066,31937.0,27038.0
5067,31938.0,27039.0
5068,31939.0,27040.0
5069,31940.0,27041.0
5070,31941.0,27042.0
5071,31942.0,27043.0
5072,31943.0,27044.0
5073,31944.0,27045.0
5074,31945.0,27046.0
5075,31946.0,27047.0
5076,31947.0,27048.0
5077,31948.0,27049.0
5078,31949.0,27050.0
5079,31950.0,27051.0
5080,31951.0,27052.0
5081,31952.0,27053.0
5082,31953.0,27054.0
5083,31954.0,27055.0
5084,31955.0,27056.0
5085,31956.0,27081.0
5086,31957.0,27082.0
5087,31958.0,27083.0
5088,31959.0,27084.0
5089,31960.0,27085.0
5090,31961.0,27086.0
5091,31962.0,27087.0
5092,31963.0,27088.0
5093,31964.0,27089.0
5094,31965.0,27090.0
5095,31966.0,27091.0
5096,31967.0,27092.0
5097,31968.0,27093.0
5114,31969.0,27316.0
5115,31970.0,27317.0
5116,31971.0,27318.0
5117,32096.0,27319.0
5118,32097.0,27320.0
5119,32098.0,27321.0
5120,32099.0,27322.0
5121,32100.0,27323.0
5122,32101.0,27324.0
5123,32102.0,27431.0
5124,32103.0,27432.0
5125,32104.0,27433.0
5126,32105.0,27434.0
5127,32106.0,27435.0
5128,32107.0,27436.0
5129,32108.0,27437.0
5130,32109.0,27438.0
5131,32110.0,27439.0
5132,32111.0,27440.0
5133,32112.0,27441.0
5134,32113.0,27442.0
5135,32114.0,27443.0
5136,32115.0,27444.0
5137,32116.0,27445.0
5138,32117.0,27446.0
5139,32118.0,27447.0
5140,32119.0,27448.0
5141,32120.0,27449.0
5142,32225.0,27450.0
5143,32226.0,27451.0
5144,32227.0,27452.0
5145,32228.0,27627.0
5146,32229.0,27628.0
5147,32230.0,27629.0
5148,32231.0,27630.0
5149,32232.0,27631.0
5150,32233.0,27632.0
5151,32234.0,27633.0
5152,32235.0,27634.0
5153,32236.0,27635.0
5154,32237.0,27636.0
5155,32238.0,27637.0
5156,32239.0,27638.0
5157,32240.0,27639.0
5158,32241.0,27640.0
5159,32242.0,27641.0
5160,32243.0,27642.0
5161,32244.0,27643.0
5162,32245.0,27644.0
5163,32246.0,27645.0
5164,32247.0,27646.0
5165,32248.0,27685.0
5166,32249.0,27686.0
5167,32250.0,27687.0
5168,32251.0,27688.0
5169,32252.0,27689.0
5170,32253.0,27690.0
5171,32254.0,27691.0
5172,32255.0,27692.0
5173,32318.0,27693.0
5174,32319.0,27694.0
5175,32320.0,27695.0
5176,32321.0,27696.0
5177,32322.0,27697.0
5178,32323.0,27698.0
5179,32324.0,27699.0
5180,32325.0,27760.0
5181,32326.0,27761.0
5182,32327.0,27762.0
5183,32328.0,27763.0
5184,32329.0,27764.0
5185,32330.0,27765.0
5186,32331.0,27766.0
5187,32332.0,27767.0
5188,32333.0,27768.0
5189,32334.0,27769.0
5190,32335.0,27770.0
5191,32336.0,27771.0
5192,32337.0,27772.0
5193,32338.0,27773.0
5194,32339.0,27774.0
5195,32340.0,27775.0
5196,32341.0,27776.0
5197,32342.0,27777.0
5198,32343.0,27778.0
5199,32344.0,27779.0
5200,32381.0,27780.0
5201,32382.0,27781.0
5202,32383.0,27782.0
5203,32384.0,27908.0
5204,32385.0,27909.0
5205,32386.0,27910.0
5206,32387.0,27911.0
5207,32388.0,27912.0
5208,32389.0,27913.0
5209,32390.0,27914.0
5210,32391.0,27915.0
5211,32392.0,27916.0
5212,32393.0,27917.0
5213,32394.0,27918.0
5214,32395.0,27919.0
5215,32396.0,27920.0
5216,32397.0,27921.0
5217,32398.0,27922.0
5218,32399.0,27923.0
5219,32400.0,27924.0
5220,32401.0,27925.0
5221,32402.0,27926.0
5222,32403.0,27927.0
5223,32404.0,27928.0
5224,32405.0,27929.0
5225,32406.0,27930.0
5226,32407.0,27931.0
5227,32408.0,27932.0
5228,32517.0,27933.0
5229,32518.0,27979.0
5230,32519.0,27980.0
5231,32520.0,27981.0
5232,32521.0,27982.0
5233,32522.0,27983.0
5234,32523.0,27984.0
5235,32524.0,27985.0
5236,32525.0,27986.0
5237,32526.0,27987.0
5238,32527.0,27988.0
5239,32528.0,27989.0
5240,32529.0,27990.0
5241,32530.0,27991.0
5242,32531.0,27992.0
5243,32532.0,27993.0
5244,32533.0,27994.0
5245,32534.0,27995.0
5246,32535.0,27996.0
5247,32536.0,27997.0
5248,32738.0,27998.0
5249,32739.0,27999.0
5250,32740.0,28000.0
5251,32741.0,28001.0
5252,32742.0,28056.0
5253,32743.0,28057.0
5254,32744.0,28058.0
5255,32745.0,28059.0
5256,32746.0,28060.0
5257,32747.0,28061.0
5258,32748.0,28062.0
5259,32749.0,28063.0
5260,32750.0,28064.0
5289,32751.0,28065.0
5290,32752.0,28066.0
5291,32753.0,28067.0
5292,32754.0,28068.0
5293,32755.0,28069.0
5294,32756.0,28070.0
5295,32757.0,28071.0
5296,32758.0,28072.0
5297,32759.0,28073.0
5298,32760.0,28074.0
5299,32888.0,28075.0
5300,32889.0,28122.0
5301,32890.0,28123.0
5302,32891.0,28124.0
5303,32892.0,28125.0
5304,32893.0,28126.0
5305,32894.0,28127.0
5306,32895.0,28128.0
5307,32896.0,28129.0
5308,32897.0,28130.0
5309,32898.0,28131.0
5310,32899.0,28132.0
5311,32900.0,28133.0
5312,32901.0,28134.0
5313,32902.0,28135.0
5314,32903.0,28136.0
5315,32904.0,28137.0
5316,32905.0,28138.0
5317,32906.0,28139.0
5318,33109.0,28140.0
5319,33110.0,28141.0
5320,33111.0,28142.0
5321,33112.0,28143.0
5322,33113.0,28144.0
5323,33114.0,28224.0
5324,33115.0,28225.0
5325,33116.0,28226.0
5326,33117.0,28227.0
5327,33118.0,28228.0
5328,33119.0,28229.0
5329,33120.0,28230.0
5330,33121.0,28231.0
5331,33122.0,28232.0
5332,33123.0,28233.0
5333,33124.0,28234.0
5334,33125.0,28235.0
5335,33126.0,28236.0
5336,33680.0,28237.0
5337,33681.0,28238.0
5338,33682.0,28239.0
5339,33683.0,28240.0
5340,33684.0,28241.0
5341,33685.0,28258.0
5342,33686.0,28259.0
5343,33687.0,28260.0
5344,33688.0,28261.0
5345,33689.0,28262.0
5346,33690.0,28263.0
5347,33691.0,28264.0
5348,33692.0,28265.0
5349,33693.0,28266.0
5350,33903.0,28267.0
5351,33904.0,28268.0
5352,33905.0,28269.0
5353,33906.0,28270.0
5354,33907.0,28271.0
5355,33908.0,28272.0
5356,33909.0,28273.0
5357,33910.0,28274.0
5358,33911.0,28275.0
5359,33912.0,28276.0
5360,33913.0,28277.0
5361,33914.0,28278.0
5362,33915.0,28279.0
5363,33916.0,28464.0
5364,33917.0,28465.0
5365,33918.0,28466.0
5366,33919.0,28467.0
5367,33920.0,28468.0
5368,33921.0,28469.0
5369,33922.0,28470.0
5370,33923.0,28471.0
5371,33924.0,28472.0
5372,33925.0,28473.0
5373,33926.0,28474.0
5374,33954.0,28475.0
5375,33955.0,28476.0
5376,33956.0,28477.0
5377,33957.0,28478.0
5378,33958.0,28479.0
5379,33959.0,28480.0
5380,33960.0,28481.0
5381,33961.0,28482.0
5382,33962.0,28483.0
5383,33963.0,28484.0
5384,33964.0,28485.0
5385,33965.0,28486.0
5386,33966.0,28487.0
5387,33967.0,28688.0
5388,33968.0,28689.0
5389,33969.0,28690.0
5390,33970.0,28691.0
5391,33971.0,28692.0
5392,33972.0,28693.0
5393,33973.0,28694.0
5394,33974.0,28695.0
5395,33975.0,28696.0
5396,33976.0,28697.0
5397,34329.0,28698.0
5398,34330.0,28699.0
5399,34331.0,28700.0
5400,34332.0,28701.0
5401,34333.0,28702.0
5402,34334.0,28703.0
5403,34335.0,28704.0
5404,34336.0,28705.0
5405,34337.0,28706.0
5406,34338.0,28725.0
5407,34339.0,28726.0
5408,34340.0,28727.0
5409,34341.0,28728.0
5410,34342.0,28729.0
5411,34343.0,28730.0
5412,34344.0,28731.0
5413,34345.0,28732.0
5414,34346.0,28733.0
5415,34347.0,28734.0
5416,34348.0,28735.0
5438,34349.0,28736.0
5439,34440.0,28737.0
5440,34441.0,28738.0
5441,34442.0,28739.0
5442,34443.0,28740.0
5443,34444.0,28741.0
5444,34445.0,28742.0
5445,34446.0,28743.0
5446,34447.0,28744.0
5447,34448.0,28745.0
5448,34449.0,28746.0
5449,34450.0,28747.0
5450,34451.0,28748.0
5451,34452.0,28749.0
5452,34453.0,28993.0
5453,34454.0,28994.0
5454,34455.0,28995.0
5455,34456.0,28996.0
5456,34525.0,28997.0
5457,34526.0,28998.0
5458,34527.0,28999.0
5459,34528.0,29000.0
5460,34529.0,29001.0
5461,34530.0,29002.0
5462,34531.0,29003.0
5463,34532.0,29004.0
5464,34533.0,29005.0
5465,34534.0,29006.0
5466,34535.0,29007.0
5467,34536.0,29008.0
5468,34537.0,29009.0
5469,34538.0,29010.0
5470,34539.0,29011.0
5471,34540.0,29012.0
5472,34541.0,29013.0
5473,34542.0,29014.0
5474,34543.0,29015.0
5475,34544.0,29016.0
5476,34545.0,29017.0
5477,34546.0,29150.0
5478,34547.0,29151.0
5479,34548.0,29152.0
5480,34549.0,29153.0
5481,34687.0,29154.0
5482,34688.0,29155.0
5483,34689.0,29156.0
5484,34690.0,29157.0
5485,34691.0,29158.0
5486,34692.0,29159.0
5487,34693.0,29160.0
5488,34694.0,29161.0
5489,34695.0,29162.0
5490,34696.0,29163.0
5491,34697.0,29164.0
5492,34698.0,29218.0
5493,34699.0,29219.0
5494,34700.0,29220.0
5495,34701.0,29221.0
5496,34702.0,29222.0
5497,34703.0,29223.0
5498,34704.0,29224.0
5499,34705.0,29225.0
5500,34706.0,29226.0
5501,34707.0,29227.0
5502,34708.0,29228.0
5503,34709.0,29229.0
5504,34710.0,29230.0
5505,34711.0,29231.0
5506,34979.0,29232.0
5507,34980.0,29233.0
5508,34981.0,29234.0
5509,34982.0,29235.0
5510,34983.0,29236.0
5511,34984.0,29237.0
5512,34985.0,29238.0
5513,34986.0,29273.0
5514,34987.0,29274.0
5515,34988.0,29275.0
5516,34989.0,29276.0
5517,34990.0,29277.0
5518,34991.0,29278.0
5519,34992.0,29279.0
5520,34993.0,29280.0
5521,34994.0,29281.0
5522,34995.0,29282.0
5523,34996.0,29283.0
5524,34997.0,29284.0
5525,34998.0,29285.0
5526,34999.0,29325.0
5527,35000.0,29326.0
5528,35001.0,29327.0
5529,35121.0,29328.0
5530,35122.0,29329.0
5531,35123.0,29330.0
5532,35124.0,29331.0
5533,35125.0,29332.0
5534,35126.0,29333.0
5535,35127.0,29334.0
5536,35128.0,29335.0
5537,35129.0,29336.0
5538,35130.0,29337.0
5539,35131.0,29338.0
5540,35132.0,29339.0
5541,35133.0,29340.0
5542,35134.0,29341.0
5543,35135.0,29342.0
5544,35136.0,29343.0
5545,35137.0,29344.0
5546,35138.0,29345.0
5547,35139.0,29346.0
5548,35140.0,29347.0
5549,35141.0,29348.0
5550,35142.0,29349.0
5551,35143.0,29350.0
5552,35144.0,29351.0
5553,35145.0,29442.0
5554,35146.0,29443.0
5555,35147.0,29444.0
5556,35148.0,29445.0
5557,35149.0,29446.0
5558,35150.0,29447.0
5559,35151.0,29448.0
5560,35152.0,29449.0
5587,35153.0,29450.0
5588,35154.0,29451.0
5589,35155.0,29452.0
5590,35156.0,29453.0
5591,35157.0,29454.0
5592,35158.0,29666.0
5593,35159.0,29667.0
5594,35160.0,29668.0
5595,35161.0,29669.0
5596,35162.0,29670.0
5597,35163.0,29671.0
5598,35164.0,29672.0
5599,35165.0,29673.0
5600,35271.0,29674.0
5601,35272.0,29675.0
5602,35273.0,29676.0
5603,35274.0,29677.0
5604,35275.0,29678.0
5605,35276.0,29924.0
5606,35277.0,29925.0
5607,35278.0,29926.0
5608,35279.0,29927.0
5609,35280.0,29928.0
5627,35281.0,29929.0
5628,35282.0,29930.0
5629,35283.0,29931.0
5630,35284.0,29932.0
5631,35285.0,29933.0
5632,35286.0,29934.0
5633,35287.0,29935.0
5634,35288.0,29936.0
5635,35289.0,29997.0
5636,35290.0,29998.0
5637,35291.0,29999.0
5638,35292.0,30000.0
5639,35293.0,30001.0
5640,35294.0,30002.0
5641,35295.0,30003.0
5642,35296.0,30004.0
5643,35297.0,30005.0
5644,35298.0,30006.0
5645,35299.0,30007.0
5646,35300.0,30008.0
5647,35301.0,30009.0
5648,35302.0,30010.0
5649,35303.0,30011.0
5650,35304.0,30012.0
5651,35305.0,30013.0
5652,35306.0,30014.0
5653,35307.0,30015.0
5654,35308.0,30016.0
5655,35309.0,30017.0
5656,35310.0,30018.0
5657,35311.0,30019.0
5658,35312.0,30020.0
5659,35313.0,30021.0
5660,35314.0,30022.0
5661,35490.0,30023.0
5662,35491.0,30024.0
5663,35492.0,30025.0
5664,35493.0,30026.0
5665,35494.0,30027.0
5666,35495.0,30028.0
5667,35496.0,30029.0
5668,35497.0,30792.0
5669,35498.0,30793.0
5670,35499.0,30794.0
5671,35500.0,30795.0
5672,35501.0,30796.0
5673,35502.0,30797.0
5674,35503.0,30798.0
5675,35504.0,30799.0
5676,35505.0,30800.0
5677,35506.0,30801.0
5678,35507.0,30802.0
5679,35508.0,30803.0
5680,35509.0,30804.0
5681,35510.0,30805.0
5682,35511.0,30806.0
5683,35512.0,30807.0
5684,35529.0,30808.0
5685,35530.0,30809.0
5686,35531.0,30810.0
5687,35532.0,30811.0
5688,35533.0,30812.0
5689,35534.0,30900.0
5690,35535.0,30901.0
5691,35536.0,30902.0
5692,35537.0,30903.0
5693,35538.0,30904.0
5694,35539.0,30905.0
5695,35540.0,30906.0
5696,35541.0,30907.0
5697,35542.0,30908.0
5698,35543.0,30909.0
5699,35544.0,30910.0
5700,35545.0,30911.0
5701,35546.0,30912.0
5702,35547.0,30913.0
5703,35548.0,30914.0
5704,35549.0,31146.0
5705,35550.0,31147.0
5706,35551.0,31148.0
5707,35552.0,31149.0
5708,35553.0,31150.0
5709,35554.0,31151.0
5710,35555.0,31152.0
5711,35556.0,31153.0
5712,35557.0,31154.0
5713,35558.0,31155.0
5714,35559.0,31156.0
5715,35560.0,31157.0
5716,35561.0,31158.0
5717,35562.0,31159.0
5718,35563.0,31160.0
5719,35564.0,31161.0
5720,35565.0,31162.0
5721,35566.0,31163.0
5722,35567.0,31164.0
5723,35888.0,31165.0
5724,35889.0,31166.0
5725,35890.0,31167.0
5726,35891.0,31467.0
5727,35892.0,31468.0
5728,35893.0,31469.0
5758,35894.0,31470.0
5759,35895.0,31471.0
5760,35896.0,31472.0
5761,35897.0,31473.0
5762,35898.0,31474.0
5763,35899.0,31475.0
5764,35941.0,31476.0
5765,35942.0,31477.0
5766,35943.0,31478.0
5767,35944.0,31479.0
5768,35945.0,31480.0
5769,35946.0,31481.0
5770,35947.0,31482.0
5771,35948.0,31483.0
5772,35949.0,31484.0
5808,35950.0,31485.0
5809,35951.0,31486.0
5810,35952.0,31487.0
5811,35953.0,31488.0
5812,35954.0,31489.0
5813,35955.0,31490.0
5814,35956.0,31800.0
5815,35957.0,31801.0
5816,35958.0,31802.0
5817,36171.0,31803.0
5818,36172.0,31804.0
5819,36173.0,31805.0
5820,36174.0,31806.0
5821,36175.0,31807.0
5822,36176.0,31808.0
5823,36177.0,31809.0
5824,36178.0,31810.0
5825,36179.0,31811.0
5826,36180.0,31812.0
5827,36181.0,31910.0
5828,36182.0,31911.0
5829,36183.0,31912.0
5830,36184.0,31913.0
5831,36185.0,31914.0
5832,36186.0,31915.0
5833,36187.0,31916.0
5834,36188.0,31917.0
5835,36189.0,31918.0
5836,36190.0,31919.0
5837,36191.0,31920.0
5838,36192.0,31921.0
5839,36193.0,31922.0
5840,36194.0,31923.0
5841,36195.0,31924.0
5842,36196.0,31925.0
5843,36197.0,31926.0
5844,36198.0,31927.0
5845,36199.0,32030.0
5867,36200.0,32031.0
5868,36201.0,32032.0
5869,36202.0,32033.0
5870,36203.0,32034.0
5871,36204.0,32035.0
5872,36205.0,32036.0
5873,36206.0,32037.0
5874,36207.0,32038.0
5875,36208.0,32039.0
5876,36209.0,32040.0
5877,36210.0,32041.0
5878,36211.0,32042.0
5879,36249.0,32043.0
5880,36250.0,32044.0
5881,36251.0,32045.0
5882,36252.0,32046.0
5883,36253.0,32047.0
5884,36254.0,32048.0
5885,36255.0,32441.0
5886,36256.0,32442.0
5887,36257.0,32443.0
5888,36258.0,32444.0
5889,36259.0,32445.0
5890,36260.0,32446.0
5891,36261.0,32447.0
5892,36262.0,32448.0
5893,36263.0,32449.0
5894,36264.0,32450.0
5895,36390.0,32451.0
5896,36391.0,32452.0
5897,36392.0,32453.0
5898,36393.0,32454.0
5899,36394.0,32455.0
5900,36395.0,32456.0
5901,36396.0,32457.0
5902,36397.0,32458.0
5903,36398.0,32459.0
5904,36399.0,32460.0
5905,36400.0,32461.0
5906,36401.0,32462.0
5907,36402.0,32463.0
5908,36403.0,32477.0
5909,36404.0,32478.0
5910,36405.0,32479.0
5911,36406.0,32480.0
5912,36407.0,32481.0
5913,36499.0,32482.0
5914,36500.0,32483.0
5915,36501.0,32484.0
5916,36502.0,32485.0
5917,36503.0,32486.0
5918,36504.0,32487.0
5919,36505.0,32488.0
5920,36506.0,32489.0
5921,36507.0,32490.0
5922,36508.0,32491.0
5923,36509.0,32492.0
5924,36510.0,32493.0
5925,36511.0,32494.0
5926,36512.0,32495.0
5927,36513.0,32496.0
5928,36514.0,32497.0
5929,36515.0,32498.0
5930,36516.0,32537.0
5931,36517.0,32538.0
5932,36518.0,32539.0
5933,36519.0,32540.0
5934,36520.0,32541.0
5935,36521.0,32542.0
5936,36522.0,32543.0
5937,36523.0,32544.0
5938,36524.0,32545.0
5939,36525.0,32546.0
5940,36526.0,32547.0
5941,36527.0,32548.0
5942,36528.0,32549.0
5943,36529.0,32550.0
5944,36530.0,32551.0
5945,36531.0,32552.0
5946,36532.0,32553.0
5947,36533.0,32554.0
5948,36534.0,32555.0
5949,36535.0,32556.0
5950,36536.0,32557.0
5951,36537.0,32558.0
5952,36538.0,32559.0
5953,36539.0,32560.0
5954,36540.0,32561.0
5955,36559.0,32585.0
5956,36560.0,32586.0
5957,36561.0,32587.0
5958,36562.0,32588.0
5959,36563.0,32589.0
5960,36564.0,32590.0
5961,36565.0,32591.0
5962,36566.0,32592.0
5963,36567.0,32593.0
5964,36568.0,32594.0
5965,36569.0,32595.0
5966,36570.0,32596.0
5967,36571.0,32597.0
5968,36572.0,32598.0
5969,36573.0,32599.0
5970,36574.0,32600.0
5971,36575.0,32601.0
5972,36576.0,32602.0
5973,36577.0,32603.0
5974,36578.0,32604.0
5975,36579.0,32605.0
5976,36580.0,32606.0
5977,36670.0,32694.0
5978,36671.0,32695.0
5979,36672.0,32696.0
5980,36673.0,32697.0
5981,36674.0,32698.0
5982,36675.0,32699.0
5983,36676.0,32700.0
5984,36677.0,32701.0
5985,36678.0,32702.0
5986,36679.0,32703.0
5987,36680.0,32704.0
5988,36681.0,32705.0
5989,36682.0,32706.0
5990,36683.0,32707.0
5991,36684.0,32708.0
5992,36685.0,32709.0
5993,36686.0,32710.0
5994,36687.0,32711.0
5995,36688.0,32712.0
5996,36689.0,32713.0
5997,36749.0,32714.0
5998,36750.0,32715.0
5999,36751.0,32716.0
6000,36752.0,32717.0
6001,36753.0,32718.0
6002,36754.0,32719.0
6003,36755.0,32720.0
6004,36756.0,32721.0
6005,36757.0,32722.0
6006,36758.0,32723.0
6007,36759.0,32724.0
6008,36760.0,32725.0
6009,36761.0,32726.0
6010,36762.0,32727.0
6011,36845.0,32728.0
6012,36846.0,32729.0
6013,36847.0,32730.0
6014,36848.0,32731.0
6015,36849.0,32732.0
6016,36850.0,32733.0
6017,36851.0,32734.0
6018,36852.0,32735.0
6019,36853.0,32736.0
6020,36854.0,32737.0
6021,36855.0,32907.0
6022,36856.0,32908.0
6023,36857.0,32909.0
6024,36858.0,32910.0
6025,36859.0,32911.0
6026,36860.0,32912.0
6027,36861.0,32913.0
6028,36862.0,32914.0
6029,36863.0,32915.0
6030,36864.0,32916.0
6031,36865.0,32917.0
6032,36866.0,32918.0
6033,36867.0,32919.0
6034,36868.0,32920.0
6087,36869.0,32921.0
6088,36870.0,33087.0
6089,36871.0,33088.0
6090,36872.0,33089.0
6091,36930.0,33090.0
6092,36931.0,33091.0
6093,36932.0,33092.0
6094,36933.0,33093.0
6095,36934.0,33094.0
6096,36935.0,33095.0
6097,36936.0,33096.0
6098,36937.0,33097.0
6099,36938.0,33098.0
6100,36939.0,33099.0
6101,36940.0,33100.0
6102,36941.0,33101.0
6103,36942.0,33102.0
6104,36943.0,33103.0
6105,36944.0,33104.0
6106,36945.0,33105.0
6107,37086.0,33106.0
6108,37087.0,33107.0
6109,37088.0,33108.0
6110,37089.0,33309.0
6111,37090.0,33310.0
6112,37091.0,33311.0
6113,37092.0,33312.0
6114,37093.0,33313.0
6115,37094.0,33314.0
6116,37095.0,33315.0
6117,37096.0,33316.0
6118,37097.0,33317.0
6119,37175.0,33318.0
6120,37176.0,33319.0
6121,37177.0,33320.0
6122,37178.0,33321.0
6123,37179.0,33322.0
6124,37180.0,33323.0
6125,37181.0,33324.0
6126,37182.0,33325.0
6127,37183.0,33326.0
6128,37184.0,33327.0
6129,37185.0,33328.0
6130,37186.0,33329.0
6131,37187.0,33330.0
6132,37188.0,33331.0
6133,37189.0,33332.0
6134,37190.0,33333.0
6135,37191.0,33334.0
6136,37192.0,33335.0
6137,37193.0,33336.0
6138,37194.0,33337.0
6139,37195.0,33338.0
6140,37301.0,33339.0
6141,37302.0,33340.0
6142,37303.0,33341.0
6143,37304.0,33342.0
6144,37305.0,33343.0
6145,37306.0,33344.0
6146,37307.0,33345.0
6147,37308.0,33346.0
6148,37309.0,33347.0
6149,37310.0,33348.0
6150,37311.0,33349.0
6151,37312.0,33350.0
6152,37313.0,33351.0
6153,37314.0,33352.0
6191,37315.0,33353.0
6192,37316.0,33354.0
6193,37317.0,33355.0
6194,37318.0,33356.0
6195,37319.0,33357.0
6196,37644.0,33358.0
6197,37645.0,33359.0
6198,37646.0,33360.0
6199,37647.0,33497.0
6200,37648.0,33498.0
6201,37649.0,33499.0
6202,37650.0,33500.0
6203,37651.0,33501.0
6204,37652.0,33502.0
6205,37653.0,33503.0
6206,37654.0,33504.0
6207,37655.0,33505.0
6208,37656.0,33506.0
6209,37657.0,33507.0
6210,37658.0,33508.0
6211,37659.0,33509.0
6212,37660.0,33510.0
6213,37661.0,33511.0
6214,37662.0,33512.0
6215,37663.0,33513.0
6216,37679.0,33514.0
6217,37680.0,33515.0
6218,37681.0,33516.0
6219,37682.0,33517.0
6220,37683.0,33518.0
6221,37684.0,33519.0
6222,37685.0,33520.0
6223,37686.0,33521.0
6224,37687.0,33522.0
6225,37688.0,33523.0
6226,37689.0,33524.0
6227,37690.0,33525.0
6228,37691.0,33526.0
6229,37692.0,33571.0
6230,37693.0,33572.0
6231,37694.0,33573.0
6232,37695.0,33574.0
6233,37696.0,33575.0
6234,37697.0,33576.0
6235,38057.0,33577.0
6236,38058.0,33578.0
6237,38059.0,33579.0
6238,38060.0,33580.0
6239,38061.0,33581.0
6240,38062.0,33582.0
6241,38063.0,33583.0
6242,38064.0,33584.0
6243,38065.0,33585.0
6244,38066.0,33586.0
6245,38067.0,33587.0
6246,38068.0,33588.0
6247,38069.0,33589.0
6248,38070.0,33590.0
6249,38071.0,33591.0
6250,38168.0,33592.0
6251,38169.0,33593.0
6252,38170.0,33743.0
6253,38171.0,33744.0
6254,38172.0,33745.0
6255,38173.0,33746.0
6256,38174.0,33747.0
6257,38175.0,33748.0
6258,38176.0,33749.0
6259,38177.0,33750.0
6260,38178.0,33751.0
6261,38179.0,33752.0
6262,38180.0,33753.0
6263,38181.0,33754.0
6264,38182.0,33755.0
6265,38183.0,33756.0
6266,38184.0,33757.0
6267,38185.0,33758.0
6268,38186.0,33759.0
6269,38187.0,33760.0
6270,38188.0,33761.0
6271,38189.0,33762.0
6272,38190.0,33763.0
6273,38191.0,33764.0
6274,38192.0,33765.0
6275,38193.0,33766.0
6276,38632.0,33782.0
6277,38633.0,33783.0
6278,38634.0,33784.0
6279,38635.0,33785.0
6280,38636.0,33786.0
6281,38637.0,33787.0
6282,38638.0,33788.0
6283,38639.0,33789.0
6284,38640.0,33790.0
6285,38641.0,33791.0
6286,38642.0,33792.0
6287,38643.0,33793.0
6288,38644.0,33794.0
6289,38645.0,33795.0
6290,38646.0,33796.0
6291,38731.0,33797.0
6292,38732.0,33941.0
6293,38733.0,33942.0
6294,38734.0,33943.0
6295,38735.0,33944.0
6296,38736.0,33945.0
6297,38737.0,33946.0
6298,38738.0,33947.0
6299,38739.0,33948.0
6300,38740.0,33949.0
6301,38741.0,33950.0
6302,38742.0,33951.0
6303,38743.0,33952.0
6304,38744.0,33953.0
6305,38745.0,33977.0
6306,38746.0,33978.0
6307,38747.0,33979.0
6308,38748.0,33980.0
6309,38749.0,33981.0
6310,38750.0,33982.0
6311,38751.0,33983.0
6312,39194.0,33984.0
6313,39195.0,33985.0
6314,39196.0,33986.0
6315,39197.0,33987.0
6316,39198.0,33988.0
6317,39199.0,33989.0
6318,39200.0,33990.0
6319,39201.0,33991.0
6320,39202.0,33992.0
6321,39203.0,33993.0
6322,39204.0,33994.0
6323,39205.0,33995.0
6324,39206.0,33996.0
6325,39207.0,33997.0
6326,39208.0,33998.0
6327,39209.0,33999.0
6328,39210.0,34204.0
6329,39211.0,34205.0
6330,39212.0,34206.0
6331,39213.0,34207.0
6332,39214.0,34208.0
6333,39236.0,34209.0
6334,39237.0,34210.0
6335,39238.0,34211.0
6336,39239.0,34212.0
6375,39240.0,34213.0
6376,39241.0,34214.0
6377,39242.0,34215.0
6378,39243.0,34216.0
6379,39244.0,34217.0
6380,39245.0,34218.0
6381,39246.0,34219.0
6382,39247.0,34220.0
6383,39248.0,34221.0
6384,39249.0,34222.0
6385,39250.0,34223.0
6386,39251.0,34419.0
6387,39252.0,34420.0
6388,39253.0,34421.0
6389,39254.0,34422.0
6390,39255.0,34423.0
6391,39390.0,34424.0
6392,39391.0,34425.0
6393,39392.0,34426.0
6420,39393.0,34427.0
6421,39394.0,34428.0
6422,39395.0,34429.0
6423,39396.0,34430.0
6424,39397.0,34431.0
6425,39398.0,34432.0
6426,39399.0,34433.0
6427,39400.0,34434.0
6428,39401.0,34435.0
6429,39402.0,34436.0
6430,39403.0,34437.0
6431,39404.0,34438.0
6432,39405.0,34439.0
6433,39406.0,34484.0
6434,39407.0,34485.0
6435,39408.0,34486.0
6436,39409.0,34487.0
6437,39410.0,34488.0
6438,39411.0,34489.0
6439,39412.0,34490.0
6440,39413.0,34491.0
6441,39618.0,34492.0
6442,39619.0,34493.0
6443,39620.0,34494.0
6444,39621.0,34495.0
6445,39622.0,34496.0
6446,39623.0,34497.0
6447,39624.0,34498.0
6448,39625.0,34499.0
6449,39626.0,34500.0
6450,39627.0,34501.0
6451,39628.0,34502.0
6452,39629.0,34503.0
6453,39630.0,34594.0
6454,39631.0,34595.0
6455,39677.0,34596.0
6456,39678.0,34597.0
6457,39679.0,34598.0
6458,39680.0,34599.0
6459,39681.0,34600.0
6460,39682.0,34601.0
6461,39683.0,34602.0
6462,39684.0,34603.0
6463,39685.0,34604.0
6464,39686.0,34605.0
6465,39687.0,34606.0
6466,39688.0,34607.0
6467,39689.0,34608.0
6468,39690.0,34609.0
6469,39691.0,34610.0
6470,39692.0,34653.0
6471,39693.0,34654.0
6472,39694.0,34655.0
6473,39695.0,34656.0
6474,39696.0,34657.0
6475,39697.0,34658.0
6476,39698.0,34659.0
6516,39699.0,34660.0
6517,39700.0,34661.0
6518,39701.0,34662.0
6519,39702.0,34663.0
6520,39703.0,34664.0
6521,39704.0,34665.0
6522,39705.0,34666.0
6523,39706.0,34667.0
6524,39707.0,34668.0
6525,39708.0,34669.0
6526,39709.0,34670.0
6527,39710.0,34671.0
6528,39746.0,34672.0
6529,39747.0,34673.0
6530,39748.0,34674.0
6531,39749.0,34675.0
6532,39750.0,34676.0
6533,39751.0,34677.0
6534,39752.0,34678.0
6535,39753.0,34679.0
6536,39754.0,34680.0
6537,39755.0,34681.0
6538,39756.0,34682.0
6539,39757.0,34683.0
6540,39758.0,34684.0
6541,39759.0,34685.0
6542,39760.0,34686.0
6543,39761.0,34729.0
6544,39762.0,34730.0
6545,39763.0,34731.0
6546,39764.0,34732.0
6547,39765.0,34733.0
6548,39766.0,34734.0
6549,39767.0,34735.0
6550,39768.0,34736.0
6551,39908.0,34737.0
6552,39909.0,34738.0
6553,39910.0,34739.0
6554,39911.0,34740.0
6555,39912.0,34741.0
6556,39913.0,34742.0
6557,39914.0,34743.0
6558,39915.0,34744.0
6559,39916.0,34745.0
6560,39917.0,34864.0
6561,39918.0,34865.0
6562,39919.0,34866.0
6563,39920.0,34867.0
6564,39921.0,34868.0
6565,39922.0,34869.0
6566,39923.0,34870.0
6567,39924.0,34871.0
6568,39925.0,34872.0
6569,39926.0,34873.0
6570,39927.0,34874.0
6571,39928.0,34875.0
6572,39929.0,34876.0
6573,39930.0,34877.0
6574,39931.0,34878.0
6575,39932.0,34879.0
6576,39933.0,34880.0
6577,39934.0,34881.0
6578,39935.0,34882.0
6579,39936.0,34883.0
6580,39937.0,34884.0
6581,39938.0,34885.0
6582,39939.0,35002.0
6583,39940.0,35003.0
6584,39941.0,35004.0
6585,39942.0,35005.0
6586,39943.0,35006.0
6587,39944.0,35007.0
6588,39945.0,35008.0
6589,39946.0,35009.0
6590,39947.0,35010.0
6591,39948.0,35011.0
6592,39949.0,35012.0
6593,39950.0,35013.0
6594,39951.0,35014.0
6595,39952.0,35015.0
6596,39953.0,35016.0
6597,39954.0,35017.0
6598,39955.0,35018.0
6599,39956.0,35019.0
6600,39957.0,35020.0
6601,39958.0,35021.0
6602,40310.0,35022.0
6603,40311.0,35023.0
6604,40312.0,35024.0
6605,40313.0,35025.0
6606,40314.0,35631.0
6607,40315.0,35632.0
6608,40316.0,35633.0
6609,40317.0,35634.0
6610,40318.0,35635.0
6611,40319.0,35636.0
6612,40320.0,35637.0
6613,40321.0,35638.0
6614,40322.0,35639.0
6615,40323.0,35640.0
6616,40381.0,35641.0
6617,40382.0,35642.0
6618,40383.0,35857.0
6619,40384.0,35858.0
6620,40385.0,35859.0
6621,40386.0,35860.0
6622,40387.0,35861.0
6623,40388.0,35862.0
6624,40389.0,35863.0
6625,40390.0,35864.0
6626,40391.0,35865.0
6627,40392.0,35866.0
6628,40393.0,35867.0
6629,40394.0,35868.0
6630,40395.0,35869.0
6631,40396.0,35870.0
6632,40397.0,36040.0
6633,40398.0,36041.0
6634,40399.0,36042.0
6635,40400.0,36043.0
6636,40401.0,36044.0
6637,40402.0,36045.0
6638,40403.0,36046.0
6639,40404.0,36047.0
6640,40567.0,36048.0
6641,40568.0,36049.0
6642,40569.0,36050.0
6643,40570.0,36051.0
6644,40571.0,36052.0
6645,40572.0,36053.0
6666,40573.0,36054.0
6667,40574.0,36055.0
6668,40575.0,36056.0
6669,40576.0,36057.0
6670,40577.0,36058.0
6671,40578.0,36059.0
6672,40579.0,36060.0
6673,40580.0,36061.0
6674,40581.0,36062.0
6675,40582.0,36063.0
6676,40725.0,36064.0
6677,40726.0,36065.0
6678,40727.0,36066.0
6679,40728.0,36067.0
6680,40729.0,36068.0
6681,40730.0,36069.0
6682,40731.0,36070.0
6683,40732.0,36071.0
6684,40733.0,36072.0
6685,40734.0,36073.0
6704,40735.0,36074.0
6705,40736.0,36075.0
6706,40947.0,36076.0
6707,40948.0,36077.0
6708,40949.0,36078.0
6709,40950.0,36079.0
6710,40951.0,36080.0
6711,40952.0,36081.0
6712,40953.0,36159.0
6713,40954.0,36160.0
6714,40955.0,36161.0
6715,40956.0,36162.0
6716,40957.0,36163.0
6717,40958.0,36164.0
6718,40959.0,36165.0
6719,40960.0,36166.0
6720,40961.0,36167.0
6721,40962.0,36168.0
6722,40963.0,36169.0
6723,40964.0,36170.0
6724,40965.0,36229.0
6725,40966.0,36230.0
6726,40967.0,36231.0
6727,40968.0,36232.0
6728,40969.0,36233.0
6729,40970.0,36234.0
6730,40971.0,36235.0
6731,40972.0,36236.0
6732,40973.0,36237.0
6733,40974.0,36238.0
6734,40975.0,36239.0
6735,40976.0,36240.0
6736,40977.0,36241.0
6737,40978.0,36242.0
6738,40979.0,36243.0
6739,40980.0,36244.0
6740,40981.0,36245.0
6741,40982.0,36246.0
6742,40983.0,36247.0
6743,40984.0,36248.0
6744,40985.0,36265.0
6745,40986.0,36266.0
6746,40987.0,36267.0
6747,40988.0,36268.0
6748,40989.0,36269.0
6749,40990.0,36270.0
6750,40991.0,36271.0
6751,40992.0,36272.0
6752,40993.0,36273.0
6753,40994.0,36274.0
6754,41115.0,36275.0
6755,41116.0,36276.0
6756,41117.0,36277.0
6757,41118.0,36278.0
6758,41119.0,36279.0
6759,41120.0,36280.0
6760,41121.0,36281.0
6761,41122.0,36336.0
6762,41123.0,36337.0
6763,41124.0,36338.0
6764,41125.0,36339.0
6765,41126.0,36340.0
6766,41127.0,36341.0
6767,41128.0,36342.0
6768,41129.0,36343.0
6769,41130.0,36344.0
6770,41131.0,36345.0
6771,41132.0,36346.0
6772,41133.0,36347.0
6773,41134.0,36348.0
6774,41135.0,36349.0
6775,41136.0,36350.0
6776,41137.0,36351.0
6777,41138.0,36352.0
6778,41312.0,36353.0
6779,41313.0,36354.0
6780,41314.0,36355.0
6781,41315.0,36356.0
6782,41316.0,36357.0
6783,41317.0,36358.0
6784,41318.0,36359.0
6785,41319.0,36360.0
6786,41320.0,36361.0
6787,41321.0,36362.0
6788,41322.0,36363.0
6789,41323.0,36364.0
6790,41324.0,36365.0
6791,41325.0,36366.0
6792,41326.0,36367.0
6793,41327.0,36368.0
6794,41328.0,36369.0
6816,41329.0,36370.0
6817,41330.0,36371.0
6818,41331.0,36372.0
6819,41332.0,36373.0
6820,41333.0,36408.0
6821,41334.0,36409.0
6822,41335.0,36410.0
6823,41391.0,36411.0
6824,41392.0,36412.0
6825,41393.0,36413.0
6826,41394.0,36414.0
6827,41395.0,36415.0
6828,41396.0,36416.0
6829,41397.0,36417.0
6830,41398.0,36418.0
6831,41399.0,36419.0
6832,41400.0,36420.0
6833,41401.0,36421.0
6834,41402.0,36422.0
6835,41403.0,36423.0
6836,41404.0,36424.0
6837,41405.0,36690.0
6838,41406.0,36691.0
6857,41407.0,36692.0
6858,41408.0,36693.0
6859,41409.0,36694.0
6860,41410.0,36695.0
6861,41411.0,36696.0
6862,41412.0,36697.0
6863,41646.0,36698.0
6864,41647.0,36699.0
6865,41648.0,36700.0
6866,41649.0,36701.0
6867,41650.0,36702.0
6868,41651.0,36703.0
6869,41652.0,36704.0
6870,41653.0,36705.0
6871,41654.0,36706.0
6872,41655.0,36707.0
6873,41656.0,36708.0
6874,41657.0,36895.0
6875,41658.0,36896.0
6876,41659.0,36897.0
6877,41660.0,36898.0
6878,41661.0,36899.0
6879,41960.0,36900.0
6880,41961.0,36901.0
6881,41962.0,36902.0
6882,41963.0,36903.0
6883,41964.0,36904.0
6884,41965.0,36905.0
6885,41966.0,36906.0
6886,41967.0,36907.0
6887,41968.0,36908.0
6888,41969.0,36909.0
6889,41970.0,36910.0
6890,41971.0,36911.0
6891,41972.0,36912.0
6892,41973.0,36913.0
6893,41974.0,36914.0
6894,41975.0,36915.0
6895,42415.0,36916.0
6896,42416.0,36917.0
6897,42417.0,36918.0
6898,42418.0,36919.0
6899,42419.0,36920.0
6900,42420.0,36921.0
6901,42421.0,36922.0
6902,42422.0,36923.0
6903,42423.0,36924.0
6904,42424.0,36925.0
6905,42425.0,36926.0
6906,42426.0,36927.0
6907,42427.0,36928.0
6908,42428.0,36929.0
6909,42429.0,36946.0
6910,42430.0,36947.0
6911,42431.0,36948.0
6912,42432.0,36949.0
6913,42433.0,36950.0
6914,42434.0,36951.0
6915,42435.0,36952.0
6916,42436.0,36953.0
6917,42500.0,36954.0
6918,42501.0,36955.0
6919,42502.0,36956.0
6920,42503.0,36957.0
6921,42504.0,36958.0
6922,42505.0,36959.0
6923,42506.0,36981.0
6924,42507.0,36982.0
6925,42508.0,36983.0
6926,42509.0,36984.0
6927,42510.0,36985.0
6928,42511.0,36986.0
6929,42512.0,36987.0
6930,42513.0,36988.0
6931,42514.0,36989.0
6932,42515.0,36990.0
6933,42836.0,37067.0
6934,42837.0,37068.0
6935,42838.0,37069.0
6936,42839.0,37070.0
6937,42840.0,37071.0
6938,42841.0,37072.0
6939,42842.0,37073.0
6940,42843.0,37074.0
6941,42844.0,37075.0
6942,42845.0,37076.0
6943,42846.0,37077.0
6944,42847.0,37078.0
6945,42848.0,37079.0
6946,42849.0,37080.0
6947,42850.0,37081.0
6948,42851.0,37082.0
6949,42852.0,37083.0
6950,42853.0,37084.0
6951,42854.0,37085.0
6952,42855.0,37109.0
6953,42856.0,37110.0
6954,42857.0,37111.0
6955,42858.0,37112.0
6956,42859.0,37113.0
6957,42860.0,37114.0
6958,42861.0,37115.0
6959,42862.0,37116.0
6960,43066.0,37117.0
6961,43067.0,37118.0
6962,43068.0,37119.0
6963,43069.0,37120.0
6964,43070.0,37121.0
6965,43071.0,37122.0
6966,43072.0,37123.0
6967,43073.0,37124.0
6968,43074.0,37125.0
6969,43075.0,37126.0
6970,43076.0,37127.0
6971,43077.0,37128.0
6972,43078.0,37129.0
6973,43079.0,37130.0
6974,43080.0,37131.0
6997,43081.0,37132.0
6998,43082.0,37133.0
6999,43083.0,37134.0
7000,43084.0,37135.0
7001,43085.0,37136.0
7002,43086.0,37137.0
7003,43087.0,37138.0
7004,43088.0,37139.0
7005,43089.0,37140.0
7006,43090.0,37141.0
7007,43107.0,37142.0
7008,43108.0,37396.0
7009,43109.0,37397.0
7010,43110.0,37398.0
7011,43111.0,37399.0
7012,43112.0,37400.0
7013,43113.0,37401.0
7014,43114.0,37402.0
7015,43115.0,37403.0
7016,43116.0,37404.0
7017,43117.0,37405.0
7018,43118.0,37406.0
7019,43119.0,37407.0
7020,43120.0,37408.0
7021,43121.0,37409.0
7022,43122.0,37410.0
7023,43123.0,37411.0
7024,43124.0,37412.0
7025,43125.0,37413.0
7026,43126.0,37414.0
7027,43127.0,37415.0
7028,43128.0,37416.0
7058,43269.0,37491.0
7059,43270.0,37492.0
7060,43271.0,37493.0
7061,43272.0,37494.0
7062,43273.0,37495.0
7063,43274.0,37496.0
7064,43275.0,37497.0
7065,43276.0,37498.0
7066,43277.0,37499.0
7067,43278.0,37500.0
7068,43279.0,37501.0
7069,43280.0,37502.0
7070,43281.0,37503.0
7071,43282.0,37504.0
7072,43283.0,37505.0
7073,43284.0,37506.0
7074,43285.0,37734.0
7075,43286.0,37735.0
7076,43287.0,37736.0
7077,43288.0,37737.0
7078,43289.0,37738.0
7079,43290.0,37739.0
7080,43291.0,37740.0
7081,43292.0,37741.0
7082,43293.0,37742.0
7083,43294.0,37743.0
7084,43315.0,37744.0
7085,43316.0,37745.0
7086,43317.0,37746.0
7087,43318.0,37747.0
7088,43319.0,37798.0
7089,43320.0,37799.0
7090,43321.0,37800.0
7091,43322.0,37801.0
7092,43323.0,37802.0
7093,43324.0,37803.0
7094,43325.0,37804.0
7095,43326.0,37805.0
7096,43327.0,37806.0
7097,43328.0,37807.0
7098,43329.0,37808.0
7099,43330.0,37809.0
7100,43331.0,37810.0
7101,43332.0,37811.0
7102,43333.0,37812.0
7103,43334.0,38035.0
7104,43335.0,38036.0
7105,43336.0,38037.0
7106,43337.0,38038.0
7107,43338.0,38039.0
7108,43339.0,38040.0
7109,43340.0,38041.0
7110,43341.0,38042.0
7111,43342.0,38043.0
7112,43343.0,38044.0
7113,43344.0,38045.0
7114,43345.0,38046.0
7115,43346.0,38047.0
7116,43347.0,38048.0
7117,43348.0,38049.0
7118,43349.0,38050.0
7119,43771.0,38051.0
7120,43772.0,38052.0
7121,43773.0,38053.0
7122,43774.0,38054.0
7123,43775.0,38055.0
7124,43776.0,38056.0
7125,43777.0,38286.0
7126,43778.0,38287.0
7127,43779.0,38288.0
7151,43780.0,38289.0
7152,43781.0,38290.0
7153,43782.0,38291.0
7154,43783.0,38292.0
7155,43784.0,38293.0
7156,43785.0,38294.0
7157,43786.0,38295.0
7158,43787.0,38296.0
7159,43788.0,38297.0
7160,43789.0,38298.0
7161,43790.0,38299.0
7162,43791.0,38300.0
7163,43792.0,38301.0
7164,43793.0,38302.0
7165,43794.0,38303.0
7166,43809.0,38304.0
7167,43810.0,38305.0
7168,43811.0,38837.0
7169,43812.0,38838.0
7170,43813.0,38839.0
7171,43814.0,38840.0
7172,43815.0,38841.0
7173,43816.0,38842.0
7174,43817.0,38843.0
7175,43818.0,38844.0
7176,43819.0,38845.0
7177,43820.0,38846.0
7178,43821.0,38847.0
7179,43822.0,38848.0
7180,43823.0,38849.0
7181,43824.0,38850.0
7182,43825.0,38851.0
7183,43826.0,38852.0
7184,43827.0,38853.0
7185,43828.0,38854.0
7186,43829.0,38855.0
7187,43830.0,38856.0
7188,43831.0,38857.0
7189,43832.0,38904.0
7190,43833.0,38905.0
7217,43834.0,38906.0
7218,43835.0,38907.0
7219,43836.0,38908.0
7220,43837.0,38909.0
7221,43838.0,38910.0
7222,43839.0,38911.0
7223,43840.0,38912.0
7224,43841.0,38913.0
7225,43842.0,38914.0
7226,43843.0,38915.0
7227,43954.0,38916.0
7228,43955.0,38917.0
7229,43956.0,38918.0
7230,43957.0,38919.0
7231,43958.0,38920.0
7232,43959.0,38921.0
7233,43960.0,38981.0
7234,43961.0,38982.0
7235,43962.0,38983.0
7236,43963.0,38984.0
7237,43964.0,38985.0
7238,43965.0,38986.0
7239,43966.0,38987.0
7240,43967.0,38988.0
7241,43968.0,38989.0
7242,43969.0,38990.0
7243,43970.0,38991.0
7244,43971.0,38992.0
7245,43972.0,38993.0
7246,43973.0,38994.0
7247,43974.0,38995.0
7248,43975.0,38996.0
7249,43976.0,38997.0
7250,43977.0,38998.0
7251,43978.0,38999.0
7252,43979.0,39000.0
7253,43980.0,39001.0
7254,43981.0,39002.0
7255,43982.0,39003.0
7256,43983.0,39004.0
7257,43984.0,39005.0
7258,43985.0,39006.0
7259,43986.0,39007.0
7260,43987.0,39008.0
7261,43988.0,39009.0
7262,44131.0,39010.0
7263,44132.0,39011.0
7264,44133.0,39012.0
7265,44134.0,39013.0
7266,44135.0,39014.0
7267,44136.0,39015.0
7268,44137.0,39113.0
7269,44138.0,39114.0
7270,44139.0,39115.0
7271,44140.0,39116.0
7272,44141.0,39117.0
7273,44142.0,39118.0
7274,44143.0,39119.0
7275,44144.0,39120.0
7276,44145.0,39121.0
7277,44146.0,39122.0
7278,44147.0,39123.0
7279,44180.0,39124.0
7280,44181.0,39125.0
7281,44182.0,39126.0
7282,44183.0,39127.0
7283,44184.0,39128.0
7284,44185.0,39129.0
7285,44186.0,39130.0
7286,44187.0,39131.0
7287,44188.0,39132.0
7288,44189.0,39133.0
7289,44190.0,39134.0
7290,44191.0,39135.0
7291,44192.0,39272.0
7292,44193.0,39273.0
7293,44194.0,39274.0
7294,44195.0,39275.0
7295,44196.0,39276.0
7296,44197.0,39277.0
7297,44198.0,39278.0
7298,44199.0,39279.0
7299,44200.0,39280.0
7300,44201.0,39281.0
7301,44398.0,39282.0
7302,44399.0,39283.0
7303,44400.0,39284.0
7304,44401.0,39285.0
7305,44402.0,39286.0
7306,44403.0,39287.0
7307,44404.0,39288.0
7308,44405.0,39289.0
7309,44406.0,39290.0
7310,44407.0,39291.0
7311,44408.0,39292.0
7312,44409.0,39293.0
7313,44410.0,39294.0
7314,44411.0,39295.0
7315,44412.0,39464.0
7316,44413.0,39465.0
7317,44414.0,39466.0
7318,44415.0,39467.0
7319,44416.0,39468.0
7320,44417.0,39469.0
7321,44545.0,39470.0
7322,44546.0,39471.0
7323,44547.0,39472.0
7324,44548.0,39473.0
7325,44549.0,39474.0
7326,44550.0,39475.0
7327,44551.0,39476.0
7328,44552.0,39477.0
7329,44553.0,39478.0
7330,44554.0,39479.0
7331,44555.0,39480.0
7332,44556.0,39481.0
7333,44557.0,39482.0
7334,44558.0,39483.0
7335,44559.0,39484.0
7336,44560.0,39485.0
7337,44561.0,39486.0
7338,44562.0,39585.0
7339,44677.0,39586.0
7340,44678.0,39587.0
7341,44679.0,39588.0
7342,44680.0,39589.0
7343,44681.0,39590.0
7344,44682.0,39591.0
7345,44683.0,39592.0
7346,44684.0,39593.0
7347,44685.0,39594.0
7348,44686.0,39595.0
7349,44687.0,39596.0
7350,44688.0,39597.0
7351,44689.0,39598.0
7352,44690.0,39599.0
7353,44691.0,39600.0
7354,44692.0,39601.0
7355,44693.0,39602.0
7356,44835.0,39603.0
7357,44836.0,39604.0
7358,44837.0,39605.0
7359,44838.0,39606.0
7360,44839.0,39855.0
7361,44840.0,39856.0
7362,44841.0,39857.0
7363,44842.0,39858.0
7364,44843.0,39859.0
7365,44844.0,39860.0
7366,44845.0,39861.0
7367,44846.0,39862.0
7368,44847.0,39863.0
7369,44848.0,39864.0
7370,44849.0,39865.0
7371,44850.0,39866.0
7372,44851.0,39867.0
7373,44852.0,39868.0
7374,44853.0,39869.0
7375,44854.0,39870.0
7376,44899.0,39871.0
7377,44900.0,39872.0
7378,44901.0,39873.0
7379,44902.0,39874.0
7380,44903.0,39875.0
7381,44904.0,39876.0
7382,44905.0,39877.0
7383,44906.0,39878.0
7384,44907.0,39879.0
7385,44908.0,39880.0
7386,44909.0,39881.0
7387,44910.0,39882.0
7388,44911.0,39883.0
7389,44912.0,39884.0
7390,44913.0,39885.0
7391,44914.0,39886.0
7392,44915.0,39887.0
7393,44916.0,39888.0
7394,45119.0,39889.0
7395,45120.0,39890.0
7396,45121.0,39891.0
7397,45122.0,39892.0
7398,45123.0,40100.0
7399,45124.0,40101.0
7400,45125.0,40102.0
7401,45126.0,40103.0
7402,45127.0,40104.0
7403,45128.0,40105.0
7404,45129.0,40106.0
7405,45130.0,40107.0
7406,45131.0,40108.0
7407,45132.0,40109.0
7408,45133.0,40110.0
7409,45134.0,40111.0
7410,45135.0,40112.0
7411,45136.0,40113.0
7412,45137.0,40114.0
7413,45138.0,40115.0
7414,45177.0,40116.0
7415,45178.0,40117.0
7416,45179.0,40118.0
7417,45180.0,40119.0
7418,45181.0,40120.0
7419,45182.0,40121.0
7420,45183.0,40122.0
7421,45184.0,40123.0
7422,45185.0,40124.0
7423,45186.0,40125.0
7424,45187.0,40324.0
7425,45188.0,40325.0
7426,45189.0,40326.0
7427,45190.0,40327.0
7428,45191.0,40328.0
7429,45365.0,40329.0
7430,45366.0,40330.0
7431,45367.0,40331.0
7432,45368.0,40332.0
7433,45369.0,40333.0
7434,45370.0,40334.0
7435,45371.0,40335.0
7436,45372.0,40336.0
7437,45373.0,40337.0
7438,45374.0,40338.0
7439,45375.0,40339.0
7440,45376.0,40340.0
7441,45377.0,40341.0
7442,45378.0,40342.0
7443,45444.0,40343.0
7444,45445.0,40878.0
7445,45446.0,40879.0
7446,45447.0,40880.0
7447,45448.0,40881.0
7448,45449.0,40882.0
7449,45450.0,40883.0
7450,45451.0,40884.0
7451,45452.0,40885.0
7452,45453.0,40886.0
7453,45454.0,40887.0
7454,45455.0,40888.0
7455,45456.0,40889.0
7456,45457.0,40890.0
7457,45458.0,40891.0
7458,45459.0,40892.0
7459,45665.0,40893.0
7460,45666.0,40894.0
7461,45667.0,40895.0
7462,45668.0,40896.0
7463,45669.0,40897.0
7464,45670.0,40898.0
7465,45671.0,40899.0
7466,45672.0,40900.0
7467,45673.0,40901.0
7468,45674.0,40902.0
7469,45675.0,40903.0
7470,45676.0,40904.0
7471,45677.0,40905.0
7472,45678.0,40906.0
7473,45679.0,40907.0
7474,45680.0,40908.0
7475,45681.0,40909.0
7476,45682.0,40910.0
7477,45683.0,40911.0
7478,45684.0,40912.0
7479,45685.0,40913.0
7480,45686.0,40914.0
7481,45687.0,40915.0
7482,45688.0,40916.0
7483,45689.0,40917.0
7484,45690.0,40918.0
7485,45691.0,40919.0
7486,45692.0,40920.0
7487,46047.0,40921.0
7488,46048.0,40922.0
7489,46049.0,40923.0
7490,46050.0,40924.0
7491,46051.0,40925.0
7492,46052.0,40926.0
7493,46053.0,41336.0
7494,46054.0,41337.0
7537,46055.0,41338.0
7538,46056.0,41339.0
7539,46057.0,41340.0
7540,46058.0,41341.0
7541,46059.0,41342.0
7542,46060.0,41343.0
7543,46061.0,41344.0
7544,46062.0,41345.0
7545,46063.0,41346.0
7546,46064.0,41347.0
7547,46065.0,41348.0
7548,46066.0,41349.0
7549,46067.0,41350.0
7550,46068.0,41351.0
7551,46229.0,41352.0
7552,46230.0,41514.0
7553,46231.0,41515.0
7554,46232.0,41516.0
7555,46233.0,41517.0
7556,46234.0,41518.0
7557,46235.0,41519.0
7558,46236.0,41520.0
7559,46237.0,41521.0
7560,46238.0,41522.0
7561,46239.0,41523.0
7562,46240.0,41524.0
7563,46241.0,41525.0
7564,46242.0,41526.0
7565,46243.0,41527.0
7566,46244.0,41528.0
7567,46245.0,41529.0
7568,46246.0,41530.0
7569,46247.0,41531.0
7570,46248.0,41532.0
7571,46249.0,41533.0
7572,46250.0,41534.0
7573,46292.0,41535.0
7574,46293.0,41536.0
7575,46294.0,41537.0
7576,46295.0,41538.0
7577,46296.0,41539.0
7578,46297.0,41540.0
7579,46298.0,41541.0
7580,46299.0,41542.0
7581,46300.0,41543.0
7582,46301.0,41544.0
7583,46302.0,41545.0
7584,46303.0,41546.0
7585,46304.0,41547.0
7586,46305.0,41548.0
7587,46306.0,41549.0
7588,46307.0,41550.0
7589,46308.0,41551.0
7590,46309.0,41552.0
7591,46394.0,41553.0
7592,46395.0,41554.0
7593,46396.0,41555.0
7594,46397.0,41556.0
7595,46398.0,41557.0
7596,46399.0,41558.0
7597,46400.0,41559.0
7598,46401.0,41560.0
7599,46402.0,41561.0
7600,46403.0,41903.0
7601,46404.0,41904.0
7602,46405.0,41905.0
7603,46406.0,41906.0
7604,46407.0,41907.0
7605,46408.0,41908.0
7606,46409.0,41909.0
7607,46410.0,41910.0
7608,46411.0,41911.0
7609,46412.0,41912.0
7610,46820.0,41913.0
7611,46821.0,41914.0
7612,46822.0,41915.0
7613,46823.0,41916.0
7614,46824.0,41917.0
7615,46825.0,41918.0
7616,46826.0,41919.0
7617,46827.0,41920.0
7618,46828.0,41921.0
7619,46829.0,41922.0
7620,46830.0,41923.0
7621,46831.0,41924.0
7622,46832.0,41925.0
7623,46833.0,42098.0
7624,46834.0,42099.0
7625,46835.0,42100.0
7626,46836.0,42101.0
7627,46837.0,42102.0
7628,46838.0,42103.0
7629,46839.0,42104.0
7630,46840.0,42105.0
7631,46841.0,42106.0
7632,46842.0,42107.0
7633,46843.0,42108.0
7634,46884.0,42109.0
7635,46885.0,42110.0
7636,46886.0,42111.0
7637,46887.0,42112.0
7638,46888.0,42113.0
7639,46889.0,42114.0
7640,46890.0,42115.0
7641,46891.0,42116.0
7642,46892.0,42117.0
7643,46893.0,42118.0
7644,46894.0,42119.0
7645,46895.0,42120.0
7646,46896.0,42121.0
7647,46897.0,42169.0
7648,46898.0,42170.0
7649,46899.0,42171.0
7650,46900.0,42172.0
7651,46901.0,42173.0
7652,46902.0,42174.0
7653,46903.0,42175.0
7654,46904.0,42176.0
7655,46905.0,42177.0
7656,46948.0,42178.0
7657,46949.0,42179.0
7658,46950.0,42180.0
7659,46951.0,42181.0
7660,46952.0,42182.0
7661,46953.0,42271.0
7662,46954.0,42272.0
7663,46955.0,42273.0
7664,46956.0,42274.0
7665,46957.0,42275.0
7666,46958.0,42276.0
7667,46959.0,42277.0
7668,46960.0,42278.0
7669,46961.0,42279.0
7670,47356.0,42280.0
7671,47357.0,42281.0
7672,47358.0,42282.0
7673,47359.0,42283.0
7674,47360.0,42284.0
7675,47361.0,42285.0
7676,47362.0,42286.0
7677,47363.0,42287.0
7678,47364.0,42288.0
7679,47365.0,42289.0
7680,47366.0,42290.0
7681,47367.0,42291.0
7682,47368.0,42292.0
7683,47369.0,42293.0
7684,47370.0,42294.0
7685,47371.0,42295.0
7686,47372.0,42296.0
7687,47611.0,42297.0
7688,47612.0,42298.0
7689,47613.0,42299.0
7690,47614.0,42300.0
7691,47615.0,42301.0
7692,47616.0,42302.0
7693,47617.0,42303.0
7694,47618.0,42304.0
7695,47619.0,42305.0
7696,47620.0,42306.0
7697,47621.0,42307.0
7698,47622.0,42308.0
7699,47623.0,42309.0
7700,47624.0,42310.0
7701,47625.0,42311.0
7702,47626.0,42312.0
7703,47627.0,42313.0
7704,47628.0,42352.0
7705,48040.0,42353.0
7706,48041.0,42354.0
7707,48042.0,42355.0
7708,48043.0,42356.0
7709,48044.0,42357.0
7710,48045.0,42358.0
7711,48046.0,42359.0
7712,48047.0,42360.0
7713,48048.0,42361.0
7714,48049.0,42362.0
7715,48050.0,42363.0
7716,48051.0,42364.0
7717,48052.0,42365.0
7718,48053.0,42366.0
7719,48260.0,42367.0
7720,48261.0,42368.0
7721,48262.0,42369.0
7722,48263.0,42370.0
7723,48264.0,42371.0
7724,48265.0,42372.0
7725,48266.0,42373.0
7726,48267.0,42374.0
7727,48268.0,42375.0
7728,48269.0,42376.0
7729,48270.0,42377.0
7730,48271.0,42378.0
7731,48272.0,42379.0
7732,48273.0,42380.0
7733,48274.0,42399.0
7734,48275.0,42400.0
7735,48276.0,42401.0
7736,48277.0,42402.0
7737,48278.0,42403.0
7738,48631.0,42404.0
7739,48632.0,42405.0
7740,48633.0,42406.0
7741,48634.0,42407.0
7742,48635.0,42408.0
7743,48636.0,42409.0
7744,48637.0,42410.0
7745,48638.0,42411.0
7746,48639.0,42412.0
7747,48640.0,42413.0
7767,48641.0,42414.0
7768,48642.0,42665.0
7769,48643.0,42666.0
7770,48644.0,42667.0
7771,48645.0,42668.0
7772,48646.0,42669.0
7773,48647.0,42670.0
7774,48648.0,42671.0
7775,48649.0,42672.0
7776,48650.0,42673.0
7777,48651.0,42674.0
7778,48674.0,42675.0
7779,48675.0,42676.0
7780,48676.0,42677.0
7781,48677.0,42678.0
7782,48678.0,42679.0
7783,48679.0,42680.0
7784,48680.0,42681.0
7785,48681.0,42682.0
7786,48682.0,42683.0
7787,48683.0,42684.0
7788,48684.0,42685.0
7789,48685.0,42686.0
7790,48686.0,42687.0
7791,48687.0,42742.0
7792,48884.0,42743.0
7793,48885.0,42744.0
7794,48886.0,42745.0
7795,48887.0,42746.0
7796,48888.0,42747.0
7797,48889.0,42748.0
7798,48890.0,42749.0
7799,48891.0,42750.0
7800,48892.0,42751.0
7801,48893.0,42752.0
7802,48894.0,42753.0
7803,48895.0,42754.0
7804,48896.0,42755.0
7805,48897.0,42756.0
7806,48898.0,42757.0
7807,48899.0,42927.0
7808,48900.0,42928.0
7809,48901.0,42929.0
7810,48902.0,42930.0
7811,48903.0,42931.0
7812,48904.0,42932.0
7813,48905.0,42933.0
7814,48906.0,42934.0
7815,48907.0,42935.0
7816,48908.0,42936.0
7817,49322.0,42937.0
7818,49323.0,42938.0
7819,49324.0,42939.0
7820,49325.0,42940.0
7821,49326.0,42941.0
7822,49327.0,42942.0
7823,49328.0,42943.0
7824,49329.0,42944.0
7825,49330.0,43091.0
7826,49331.0,43092.0
7827,49332.0,43093.0
7828,49333.0,43094.0
7829,49334.0,43095.0
7830,49335.0,43096.0
7831,49336.0,43097.0
7832,49337.0,43098.0
7833,49338.0,43099.0
7834,49804.0,43100.0
7835,49805.0,43101.0
7836,49806.0,43102.0
7837,49807.0,43103.0
7838,49808.0,43104.0
7839,49809.0,43105.0
7840,49810.0,43106.0
7841,49811.0,43248.0
7842,49812.0,43249.0
7843,49813.0,43250.0
7844,49814.0,43251.0
7845,49815.0,43252.0
7846,49816.0,43253.0
7847,49817.0,43254.0
7848,49818.0,43255.0
7849,49819.0,43256.0
7850,49820.0,43257.0
7851,49821.0,43258.0
7852,49822.0,43259.0
7853,49823.0,43260.0
7854,49824.0,43261.0
7855,49825.0,43262.0
7856,49826.0,43263.0
7857,49827.0,43264.0
7858,49828.0,43265.0
7859,49829.0,43266.0
7860,49830.0,43267.0
7861,49831.0,43268.0
7862,49832.0,43368.0
7863,49833.0,43369.0
7864,49834.0,43370.0
7865,49835.0,43371.0
7866,49836.0,43372.0
7867,49837.0,43373.0
7868,49838.0,43374.0
7869,49839.0,43375.0
7870,49840.0,43376.0
7871,49841.0,43377.0
7888,49842.0,43378.0
7889,49843.0,43379.0
7890,49844.0,43380.0
7891,49845.0,43381.0
7892,49846.0,43382.0
7893,49847.0,43383.0
7894,49848.0,43384.0
7895,49849.0,43385.0
7896,49850.0,43386.0
7897,49851.0,43387.0
7898,49852.0,43388.0
7899,49853.0,43389.0
7900,49854.0,43390.0
7901,49855.0,43391.0
7902,49856.0,43549.0
7903,49857.0,43550.0
7904,49858.0,43551.0
7905,49859.0,43552.0
7906,49860.0,43553.0
7907,49861.0,43554.0
7908,49862.0,43555.0
7909,49863.0,43556.0
7910,49864.0,43557.0
7911,49865.0,43558.0
7912,49866.0,43559.0
7913,49867.0,43560.0
7914,49868.0,43561.0
7915,49869.0,43562.0
7916,49870.0,43563.0
7917,49871.0,43564.0
7918,49972.0,43565.0
7919,49973.0,43566.0
7920,49974.0,43567.0
7921,49975.0,43568.0
7922,49976.0,43569.0
7923,49977.0,43570.0
7924,49978.0,43593.0
7925,49979.0,43594.0
7926,49980.0,43595.0
7942,49981.0,43596.0
7943,49982.0,43597.0
7944,49983.0,43598.0
7945,49984.0,43599.0
7946,49985.0,43600.0
7947,49986.0,43601.0
7948,49987.0,43602.0
7949,49988.0,43603.0
7950,49989.0,43604.0
7951,49990.0,43605.0
7952,49991.0,43606.0
7953,49992.0,43607.0
7954,49993.0,43608.0
7955,50108.0,43628.0
7956,50109.0,43629.0
7957,50110.0,43630.0
7958,50111.0,43631.0
7959,50112.0,43632.0
7960,50113.0,43633.0
7961,50114.0,43634.0
7962,50115.0,43635.0
7963,50116.0,43636.0
7964,50117.0,43637.0
7965,50118.0,43638.0
7966,50119.0,43639.0
7967,50120.0,43640.0
7968,50121.0,43641.0
7969,50122.0,43642.0
7970,50123.0,43643.0
7971,50124.0,44167.0
7972,50125.0,44168.0
7973,50126.0,44169.0
7974,50127.0,44170.0
7975,50128.0,44171.0
7976,50129.0,44172.0
7977,50130.0,44173.0
7978,50131.0,44174.0
7979,50132.0,44175.0
7980,50133.0,44176.0
7981,50134.0,44177.0
7982,50135.0,44178.0
7983,50136.0,44179.0
7984,50381.0,44227.0
7985,50382.0,44228.0
7986,50383.0,44229.0
7987,50384.0,44230.0
7988,50385.0,44231.0
7989,50386.0,44232.0
7990,50387.0,44233.0
7991,50388.0,44234.0
7992,50389.0,44235.0
7993,50390.0,44236.0
7994,50391.0,44237.0
7995,50392.0,44238.0
7996,50393.0,44239.0
7997,50394.0,44240.0
7998,50395.0,44241.0
7999,50396.0,44330.0
8000,50397.0,44331.0
8001,50398.0,44332.0
8002,50399.0,44333.0
8003,50400.0,44334.0
8004,50401.0,44335.0
8005,50544.0,44336.0
8006,50545.0,44337.0
8007,50546.0,44338.0
8008,50547.0,44339.0
8009,50548.0,44340.0
8010,50549.0,44341.0
8011,50550.0,44342.0
8012,50551.0,44343.0
8013,50552.0,44344.0
8014,50553.0,44345.0
8015,50554.0,44346.0
8016,50555.0,44347.0
8017,50556.0,44348.0
8018,50557.0,44349.0
8019,50558.0,44350.0
8020,50559.0,44351.0
8021,50560.0,44352.0
8022,50561.0,44353.0
8023,50839.0,44354.0
8058,50840.0,44355.0
8059,50841.0,44356.0
8060,50842.0,44357.0
8061,50843.0,44358.0
8062,50844.0,44359.0
8063,50845.0,44360.0
8064,50846.0,44361.0
8065,50847.0,44362.0
8066,50848.0,44363.0
8067,50849.0,44364.0
8068,50850.0,44365.0
8069,50851.0,44366.0
8070,50852.0,44367.0
8071,50853.0,44368.0
8072,50854.0,44369.0
8073,50855.0,44370.0
8074,50856.0,44371.0
8075,50857.0,44372.0
8076,50858.0,44373.0
8077,50859.0,44374.0
8078,50860.0,44375.0
8079,50877.0,44376.0
8080,50878.0,44377.0
8081,50879.0,44378.0
8082,50880.0,44379.0
8083,50881.0,44380.0
8084,50882.0,44444.0
8085,50883.0,44445.0
8086,50884.0,44446.0
8087,50885.0,44447.0
8115,50886.0,44448.0
8116,50887.0,44449.0
8117,50888.0,44450.0
8118,50889.0,44451.0
8119,50890.0,44452.0
8120,50891.0,44453.0
8121,50892.0,44454.0
8122,51094.0,44455.0
8123,51095.0,44456.0
8124,51096.0,44457.0
8125,51097.0,44458.0
8126,51098.0,44459.0
8127,51099.0,44460.0
8128,51100.0,44461.0
8129,51101.0,44462.0
8130,51102.0,44463.0
8131,51103.0,44464.0
8132,51196.0,44465.0
8133,51197.0,44466.0
8134,51198.0,44467.0
8135,51199.0,44468.0
8136,51200.0,44469.0
8137,51201.0,44470.0
8138,51202.0,44471.0
8139,51203.0,44472.0
8140,51204.0,44473.0
8141,51205.0,44474.0
8142,51206.0,44475.0
8143,51207.0,44476.0
