train_idx,val_idx,test_idx
0,7.0,8.0
1,9.0,32.0
2,21.0,33.0
3,23.0,48.0
4,25.0,50.0
5,34.0,54.0
6,39.0,56.0
10,40.0,66.0
11,41.0,67.0
12,42.0,69.0
13,53.0,82.0
14,60.0,89.0
15,63.0,98.0
16,80.0,101.0
17,83.0,102.0
18,113.0,103.0
19,120.0,105.0
20,128.0,107.0
22,129.0,108.0
24,131.0,114.0
26,140.0,115.0
27,145.0,118.0
28,146.0,133.0
29,152.0,136.0
30,156.0,142.0
31,158.0,147.0
35,161.0,149.0
36,163.0,154.0
37,165.0,170.0
38,168.0,172.0
43,173.0,177.0
44,174.0,178.0
45,183.0,201.0
46,184.0,202.0
47,185.0,204.0
49,192.0,206.0
51,197.0,213.0
52,199.0,257.0
55,221.0,273.0
57,241.0,296.0
58,242.0,298.0
59,247.0,311.0
61,265.0,312.0
62,280.0,318.0
64,287.0,327.0
65,289.0,330.0
68,295.0,335.0
70,299.0,344.0
71,302.0,351.0
72,317.0,353.0
73,328.0,363.0
74,336.0,371.0
75,346.0,386.0
76,360.0,387.0
77,364.0,405.0
78,368.0,409.0
79,399.0,414.0
81,415.0,422.0
84,418.0,439.0
85,423.0,447.0
86,436.0,456.0
87,438.0,458.0
88,450.0,469.0
90,459.0,476.0
91,471.0,483.0
92,477.0,484.0
93,480.0,512.0
94,495.0,537.0
95,516.0,541.0
96,526.0,543.0
97,553.0,549.0
99,574.0,562.0
100,591.0,577.0
104,592.0,582.0
106,596.0,584.0
109,607.0,587.0
110,612.0,588.0
111,617.0,595.0
112,635.0,599.0
116,648.0,609.0
117,650.0,615.0
119,655.0,618.0
121,665.0,623.0
122,667.0,624.0
123,678.0,637.0
124,684.0,654.0
125,696.0,661.0
126,697.0,681.0
127,699.0,687.0
130,708.0,706.0
132,716.0,711.0
134,718.0,719.0
135,733.0,724.0
137,740.0,734.0
138,746.0,736.0
139,761.0,737.0
141,763.0,739.0
143,772.0,742.0
144,779.0,745.0
148,780.0,748.0
150,792.0,781.0
151,796.0,785.0
153,844.0,797.0
155,849.0,807.0
157,850.0,809.0
159,860.0,814.0
160,864.0,821.0
162,875.0,827.0
164,886.0,832.0
166,891.0,840.0
167,911.0,846.0
169,924.0,847.0
171,926.0,855.0
175,950.0,861.0
176,957.0,872.0
179,964.0,883.0
180,969.0,890.0
181,1001.0,898.0
182,1021.0,901.0
186,1023.0,903.0
187,1057.0,905.0
188,1069.0,912.0
189,1100.0,920.0
190,1107.0,936.0
191,1111.0,954.0
193,1118.0,959.0
194,1120.0,973.0
195,1121.0,975.0
196,1123.0,982.0
198,1128.0,986.0
200,1139.0,988.0
203,1153.0,993.0
205,1157.0,1012.0
207,1159.0,1016.0
208,1170.0,1020.0
209,1189.0,1039.0
210,1207.0,1047.0
211,1213.0,1049.0
212,1238.0,1050.0
214,1239.0,1067.0
215,1246.0,1074.0
216,1253.0,1079.0
217,1265.0,1087.0
218,1268.0,1097.0
219,1295.0,1104.0
220,1309.0,1124.0
222,1311.0,1125.0
223,1322.0,1132.0
224,1323.0,1140.0
225,1325.0,1145.0
226,1336.0,1148.0
227,1356.0,1150.0
228,1375.0,1154.0
229,1386.0,1174.0
230,1409.0,1183.0
231,1417.0,1205.0
232,1420.0,1222.0
233,1427.0,1244.0
234,1429.0,1245.0
235,1437.0,1251.0
236,1443.0,1254.0
237,1447.0,1256.0
238,1457.0,1261.0
239,1471.0,1274.0
240,1490.0,1307.0
243,1498.0,1310.0
244,1500.0,1315.0
245,1521.0,1318.0
246,1523.0,1338.0
248,1528.0,1339.0
249,1532.0,1342.0
250,1580.0,1345.0
251,1598.0,1346.0
252,1600.0,1347.0
253,1610.0,1353.0
254,1617.0,1355.0
255,1623.0,1366.0
256,1626.0,1370.0
258,1627.0,1374.0
259,1635.0,1377.0
260,1642.0,1382.0
261,1643.0,1384.0
262,1647.0,1396.0
263,1650.0,1402.0
264,1656.0,1412.0
266,1666.0,1415.0
267,1673.0,1419.0
268,1684.0,1425.0
269,1711.0,1428.0
270,1723.0,1432.0
271,1726.0,1435.0
272,1744.0,1440.0
274,1749.0,1442.0
275,1753.0,1453.0
276,1761.0,1464.0
277,1776.0,1466.0
278,1783.0,1479.0
279,1784.0,1487.0
281,1790.0,1491.0
282,1791.0,1494.0
283,1800.0,1497.0
284,1802.0,1502.0
285,1803.0,1513.0
286,1821.0,1526.0
288,1824.0,1530.0
290,1837.0,1531.0
291,1838.0,1570.0
292,1841.0,1575.0
293,1849.0,1587.0
294,1854.0,1604.0
297,1855.0,1619.0
300,1857.0,1625.0
301,1862.0,1631.0
303,1866.0,1652.0
304,1871.0,1654.0
305,1875.0,1657.0
306,1884.0,1659.0
307,1890.0,1664.0
308,1896.0,1665.0
309,1914.0,1674.0
310,1916.0,1683.0
313,1935.0,1694.0
314,1941.0,1695.0
315,1964.0,1703.0
316,1970.0,1706.0
319,1992.0,1715.0
320,1994.0,1717.0
321,2002.0,1725.0
322,2014.0,1727.0
323,2017.0,1738.0
324,2018.0,1748.0
325,2022.0,1751.0
326,2030.0,1756.0
329,2031.0,1759.0
331,2049.0,1760.0
332,2053.0,1763.0
333,2063.0,1770.0
334,2071.0,1777.0
337,2083.0,1807.0
338,2084.0,1819.0
339,2091.0,1830.0
340,2101.0,1831.0
341,2105.0,1836.0
342,2118.0,1840.0
343,2134.0,1842.0
345,2157.0,1846.0
347,2161.0,1847.0
348,2179.0,1850.0
349,2190.0,1863.0
350,2192.0,1873.0
352,2199.0,1874.0
354,2201.0,1876.0
355,2202.0,1878.0
356,2225.0,1883.0
357,2227.0,1886.0
358,2228.0,1887.0
359,2234.0,1901.0
361,2235.0,1906.0
362,2243.0,1919.0
365,2246.0,1922.0
366,2258.0,1934.0
367,2265.0,1946.0
369,2272.0,1975.0
370,2280.0,1978.0
372,2283.0,1982.0
373,2294.0,1983.0
374,2297.0,1988.0
375,2306.0,1996.0
376,2310.0,2006.0
377,2322.0,2012.0
378,2340.0,2027.0
379,2349.0,2028.0
380,2352.0,2039.0
381,2358.0,2050.0
382,2379.0,2080.0
383,2382.0,2081.0
384,2385.0,2102.0
385,2405.0,2111.0
388,2418.0,2112.0
389,2440.0,2131.0
390,2452.0,2141.0
391,2470.0,2144.0
392,2472.0,2150.0
393,2482.0,2151.0
394,2502.0,2154.0
395,2526.0,2156.0
396,2527.0,2170.0
397,2528.0,2174.0
398,2534.0,2183.0
400,2540.0,2191.0
401,2554.0,2198.0
402,2562.0,2204.0
403,2578.0,2213.0
404,2580.0,2215.0
406,2590.0,2217.0
407,2596.0,2245.0
408,2605.0,2248.0
410,2617.0,2254.0
411,2628.0,2255.0
412,2631.0,2256.0
413,2635.0,2260.0
416,2641.0,2261.0
417,2654.0,2267.0
419,2659.0,2270.0
420,2665.0,2271.0
421,2686.0,2273.0
424,2696.0,2274.0
425,2701.0,2291.0
426,2721.0,2292.0
427,2724.0,2311.0
428,2754.0,2333.0
429,2758.0,2338.0
430,2768.0,2344.0
431,2776.0,2351.0
432,2777.0,2357.0
433,2784.0,2363.0
434,2788.0,2373.0
435,2809.0,2377.0
437,2813.0,2388.0
440,2821.0,2398.0
441,2822.0,2402.0
442,2834.0,2406.0
443,2847.0,2415.0
444,2851.0,2419.0
445,2869.0,2434.0
446,2874.0,2444.0
448,2885.0,2448.0
449,2895.0,2449.0
451,2900.0,2456.0
452,2907.0,2480.0
453,2909.0,2491.0
454,2914.0,2503.0
455,2921.0,2507.0
457,2922.0,2533.0
460,2932.0,2559.0
461,2936.0,2561.0
462,2937.0,2563.0
463,2940.0,2566.0
464,2943.0,2574.0
465,2944.0,2576.0
466,2946.0,2581.0
467,2955.0,2586.0
468,2961.0,2593.0
470,2963.0,2600.0
472,2981.0,2612.0
473,2992.0,2633.0
474,2995.0,2639.0
475,3001.0,2656.0
478,3010.0,2669.0
479,3013.0,2689.0
481,3024.0,2695.0
482,3025.0,2703.0
485,3027.0,2708.0
486,3044.0,2709.0
487,3092.0,2714.0
488,3101.0,2716.0
489,3109.0,2717.0
490,3112.0,2728.0
491,3123.0,2734.0
492,3128.0,2744.0
493,3151.0,2762.0
494,3161.0,2766.0
496,3164.0,2771.0
497,3175.0,2780.0
498,3179.0,2782.0
499,3181.0,2787.0
500,3196.0,2789.0
501,3207.0,2791.0
502,3212.0,2794.0
503,3213.0,2801.0
504,3226.0,2807.0
505,3229.0,2808.0
506,3237.0,2812.0
507,3243.0,2823.0
508,3247.0,2828.0
509,3249.0,2831.0
510,3250.0,2835.0
511,3252.0,2838.0
513,3257.0,2857.0
514,3262.0,2860.0
515,3279.0,2862.0
517,3280.0,2864.0
518,3286.0,2867.0
519,3295.0,2871.0
520,3299.0,2908.0
521,3308.0,2933.0
522,3311.0,2938.0
523,3313.0,2942.0
524,3318.0,2984.0
525,3326.0,2993.0
527,3343.0,2996.0
528,3354.0,3006.0
529,3378.0,3014.0
530,3398.0,3017.0
531,3410.0,3018.0
532,3427.0,3021.0
533,3434.0,3022.0
534,3451.0,3026.0
535,3465.0,3031.0
536,3466.0,3033.0
538,3467.0,3042.0
539,3468.0,3049.0
540,3477.0,3050.0
542,3485.0,3051.0
544,3511.0,3064.0
545,3514.0,3074.0
546,3532.0,3076.0
547,3543.0,3099.0
548,3583.0,3108.0
550,3587.0,3129.0
551,3589.0,3136.0
552,3592.0,3139.0
554,3599.0,3147.0
555,3607.0,3155.0
556,3611.0,3162.0
557,3620.0,3166.0
558,3632.0,3170.0
559,3643.0,3178.0
560,3648.0,3190.0
561,3662.0,3198.0
563,3663.0,3202.0
564,3669.0,3220.0
565,3698.0,3222.0
566,3711.0,3244.0
567,3748.0,3259.0
568,3750.0,3263.0
569,3796.0,3264.0
570,3801.0,3265.0
571,3803.0,3267.0
572,3807.0,3268.0
573,3816.0,3272.0
575,3819.0,3275.0
576,3822.0,3276.0
578,3825.0,3289.0
579,3829.0,3292.0
580,3838.0,3296.0
581,3840.0,3301.0
583,3841.0,3303.0
585,3844.0,3310.0
586,3851.0,3327.0
589,3853.0,3355.0
590,3885.0,3370.0
593,3915.0,3375.0
594,3916.0,3396.0
597,3935.0,3406.0
598,3938.0,3409.0
600,3955.0,3412.0
601,3986.0,3421.0
602,3994.0,3432.0
603,4029.0,3435.0
604,4038.0,3443.0
605,4053.0,3458.0
606,4063.0,3479.0
608,4067.0,3484.0
610,4086.0,3486.0
611,4097.0,3494.0
613,4099.0,3510.0
614,4118.0,3513.0
616,4124.0,3520.0
619,4145.0,3524.0
620,4146.0,3529.0
621,4154.0,3535.0
622,4163.0,3560.0
625,4170.0,3564.0
626,4173.0,3566.0
627,4176.0,3605.0
628,4180.0,3616.0
629,4190.0,3626.0
630,4201.0,3637.0
631,4208.0,3660.0
632,4244.0,3667.0
633,4266.0,3675.0
634,4275.0,3677.0
636,4276.0,3688.0
638,4285.0,3689.0
639,4288.0,3697.0
640,4304.0,3704.0
641,4309.0,3708.0
642,4319.0,3716.0
643,4334.0,3718.0
644,4343.0,3721.0
645,4350.0,3729.0
646,4388.0,3753.0
647,4390.0,3757.0
649,4405.0,3762.0
651,4411.0,3772.0
652,4423.0,3778.0
653,4455.0,3797.0
656,4480.0,3812.0
657,4481.0,3817.0
658,4483.0,3824.0
659,4494.0,3846.0
660,4500.0,3883.0
662,4503.0,3891.0
663,4513.0,3910.0
664,4532.0,3927.0
666,4536.0,3930.0
668,4537.0,3946.0
669,4540.0,3948.0
670,4543.0,3953.0
671,4545.0,3961.0
672,4551.0,3963.0
673,4552.0,3971.0
674,4553.0,3974.0
675,4557.0,3997.0
676,4562.0,4001.0
677,4565.0,4028.0
679,4567.0,4033.0
680,4574.0,4043.0
682,4578.0,4048.0
683,4610.0,4049.0
685,4620.0,4050.0
686,4623.0,4052.0
688,4629.0,4064.0
689,4638.0,4065.0
690,4639.0,4069.0
691,4644.0,4079.0
692,4648.0,4091.0
693,4664.0,4094.0
694,4673.0,4095.0
695,4681.0,4108.0
698,4709.0,4117.0
700,4734.0,4120.0
701,4738.0,4130.0
702,4743.0,4131.0
703,4763.0,4133.0
704,4768.0,4140.0
705,4775.0,4151.0
707,4781.0,4164.0
709,4785.0,4182.0
710,4786.0,4191.0
712,4794.0,4232.0
713,4798.0,4239.0
714,4805.0,4264.0
715,4810.0,4265.0
717,4812.0,4270.0
720,4814.0,4291.0
721,4830.0,4295.0
722,4831.0,4313.0
723,4833.0,4318.0
725,4839.0,4384.0
726,4856.0,4392.0
727,4857.0,4395.0
728,4861.0,4404.0
729,4871.0,4415.0
730,4914.0,4418.0
731,4915.0,4425.0
732,4920.0,4441.0
735,4945.0,4448.0
738,4950.0,4454.0
741,4951.0,4458.0
743,4959.0,4459.0
744,4970.0,4462.0
747,4972.0,4464.0
749,4977.0,4468.0
750,4979.0,4477.0
751,4997.0,4491.0
752,5008.0,4497.0
753,5009.0,4523.0
754,5019.0,4526.0
755,5023.0,4527.0
756,5027.0,4528.0
757,5030.0,4530.0
758,5038.0,4535.0
759,5049.0,4554.0
760,5076.0,4555.0
762,5089.0,4560.0
764,5090.0,4575.0
765,5108.0,4577.0
766,5111.0,4579.0
767,5115.0,4594.0
768,5122.0,4600.0
769,5132.0,4603.0
770,5136.0,4630.0
771,5153.0,4631.0
773,5156.0,4632.0
774,5161.0,4649.0
775,5165.0,4658.0
776,5173.0,4663.0
777,5174.0,4669.0
778,5178.0,4690.0
782,5186.0,4691.0
783,5200.0,4707.0
784,5239.0,4710.0
786,5242.0,4726.0
787,5273.0,4730.0
788,5295.0,4735.0
789,5296.0,4736.0
790,5308.0,4737.0
791,5309.0,4739.0
793,5323.0,4745.0
794,5333.0,4746.0
795,5341.0,4748.0
798,5344.0,4749.0
799,5360.0,4751.0
800,5363.0,4759.0
801,5371.0,4761.0
802,5410.0,4764.0
803,5421.0,4765.0
804,5434.0,4766.0
805,5437.0,4770.0
806,5439.0,4774.0
808,5456.0,4790.0
810,5465.0,4792.0
811,5476.0,4796.0
812,5482.0,4807.0
813,5489.0,4808.0
815,5515.0,4813.0
816,5516.0,4820.0
817,5527.0,4821.0
818,5528.0,4826.0
819,5531.0,4827.0
820,5536.0,4844.0
822,5538.0,4869.0
823,5539.0,4873.0
824,5546.0,4874.0
825,5550.0,4910.0
826,5554.0,4911.0
828,5577.0,4918.0
829,5580.0,4939.0
830,5585.0,4964.0
831,5601.0,4985.0
833,5641.0,4993.0
834,5643.0,5001.0
835,5655.0,5005.0
836,5657.0,5007.0
837,5698.0,5020.0
838,5748.0,5022.0
839,5785.0,5031.0
841,5816.0,5091.0
842,5819.0,5093.0
843,5830.0,5099.0
845,5834.0,5129.0
848,5855.0,5135.0
851,5869.0,5151.0
852,5874.0,5170.0
853,5894.0,5184.0
854,5895.0,5201.0
856,5896.0,5266.0
857,5905.0,5267.0
858,5908.0,5274.0
859,5920.0,5275.0
862,5954.0,5285.0
863,5963.0,5289.0
865,5968.0,5307.0
866,5973.0,5314.0
867,5979.0,5347.0
868,5984.0,5355.0
869,5993.0,5358.0
870,5996.0,5359.0
871,6013.0,5366.0
873,6028.0,5379.0
874,6029.0,5380.0
876,6033.0,5391.0
877,6043.0,5396.0
878,6058.0,5400.0
879,6064.0,5401.0
880,6067.0,5440.0
881,6087.0,5462.0
882,6120.0,5468.0
884,6178.0,5481.0
885,6198.0,5496.0
887,6201.0,5499.0
888,6202.0,5524.0
889,6211.0,5568.0
892,6212.0,5573.0
893,6217.0,5586.0
894,6219.0,5590.0
895,6225.0,5597.0
896,6233.0,5605.0
897,6258.0,5607.0
899,6260.0,5658.0
900,6266.0,5662.0
902,6270.0,5696.0
904,6272.0,5718.0
906,6275.0,5722.0
907,6277.0,5729.0
908,6281.0,5746.0
909,6286.0,5747.0
910,6289.0,5776.0
913,6302.0,5793.0
914,6304.0,5811.0
915,6320.0,5829.0
916,6344.0,5843.0
917,6360.0,5887.0
918,6369.0,5889.0
919,6375.0,5893.0
921,6398.0,5898.0
922,6400.0,5907.0
923,6406.0,5922.0
925,6408.0,5925.0
927,6410.0,5935.0
928,6415.0,5936.0
929,6426.0,5941.0
930,6430.0,5952.0
931,6448.0,5957.0
932,6451.0,5961.0
933,6468.0,5974.0
934,6487.0,5985.0
935,6500.0,5992.0
937,6502.0,5994.0
938,6515.0,6001.0
939,6517.0,6010.0
940,6518.0,6040.0
941,6524.0,6041.0
942,6532.0,6051.0
943,6547.0,6069.0
944,6553.0,6075.0
945,6582.0,6076.0
946,6591.0,6101.0
947,6596.0,6122.0
948,6630.0,6131.0
949,6637.0,6137.0
951,6640.0,6163.0
952,6644.0,6165.0
953,6646.0,6169.0
955,6649.0,6173.0
956,6650.0,6177.0
958,6657.0,6180.0
960,6661.0,6182.0
961,6665.0,6183.0
962,6668.0,6190.0
963,6680.0,6195.0
965,6691.0,6204.0
966,6694.0,6210.0
967,6708.0,6222.0
968,6722.0,6230.0
970,6724.0,6238.0
971,6734.0,6243.0
972,6753.0,6245.0
974,6766.0,6250.0
976,6769.0,6253.0
977,6773.0,6265.0
978,6774.0,6268.0
979,6800.0,6274.0
980,6822.0,6276.0
981,6826.0,6287.0
983,6833.0,6291.0
984,6850.0,6335.0
985,6871.0,6387.0
987,6878.0,6391.0
989,6892.0,6416.0
990,6910.0,6425.0
991,6926.0,6441.0
992,6931.0,6447.0
994,6938.0,6449.0
995,6949.0,6453.0
996,6959.0,6455.0
997,6973.0,6456.0
998,6983.0,6467.0
999,6985.0,6474.0
1000,6987.0,6476.0
1002,6993.0,6479.0
1003,7011.0,6482.0
1004,7020.0,6492.0
1005,7031.0,6523.0
1006,7057.0,6538.0
1007,7112.0,6549.0
1008,7118.0,6551.0
1009,7130.0,6556.0
1010,7156.0,6564.0
1011,7172.0,6578.0
1013,7173.0,6595.0
1014,7179.0,6612.0
1015,7204.0,6619.0
1017,7207.0,6627.0
1018,7211.0,6647.0
1019,7231.0,6653.0
1022,7253.0,6655.0
1024,7276.0,6656.0
1025,7277.0,6669.0
1026,7282.0,6679.0
1027,7299.0,6697.0
1028,7307.0,6698.0
1029,7312.0,6706.0
1030,7316.0,6714.0
1031,7317.0,6746.0
1032,7318.0,6757.0
1033,7320.0,6762.0
1034,7321.0,6792.0
1035,7322.0,6804.0
1036,7339.0,6819.0
1037,7353.0,6825.0
1038,7368.0,6836.0
1040,7385.0,6844.0
1041,7395.0,6859.0
1042,7411.0,6895.0
1043,7412.0,6901.0
1044,7428.0,6914.0
1045,7430.0,6933.0
1046,7455.0,6936.0
1048,7456.0,6942.0
1051,7459.0,6944.0
1052,7461.0,6945.0
1053,7476.0,6948.0
1054,7487.0,6951.0
1055,7499.0,6958.0
1056,7503.0,6970.0
1058,7509.0,6975.0
1059,7513.0,6986.0
1060,7518.0,6998.0
1061,7529.0,7006.0
1062,7540.0,7014.0
1063,7550.0,7022.0
1064,7558.0,7025.0
1065,7569.0,7035.0
1066,7579.0,7037.0
1068,7581.0,7038.0
1070,7586.0,7064.0
1071,7595.0,7076.0
1072,7604.0,7106.0
1073,7605.0,7115.0
1075,7607.0,7122.0
1076,7613.0,7146.0
1077,7618.0,7150.0
1078,7619.0,7155.0
1080,7621.0,7157.0
1081,7622.0,7168.0
1082,7653.0,7237.0
1083,7655.0,7252.0
1084,7661.0,7257.0
1085,7671.0,7278.0
1086,7673.0,7330.0
1088,7679.0,7342.0
1089,7688.0,7363.0
1090,7697.0,7370.0
1091,7698.0,7373.0
1092,7707.0,7378.0
1093,7717.0,7381.0
1094,7730.0,7382.0
1095,7742.0,7397.0
1096,7745.0,7413.0
1098,7749.0,7416.0
1099,7750.0,7425.0
1101,7754.0,7439.0
1102,7764.0,7442.0
1103,7783.0,7448.0
1105,7784.0,7464.0
1106,7791.0,7472.0
1108,7795.0,7475.0
1109,7796.0,7477.0
1110,7797.0,7479.0
1112,7800.0,7483.0
1113,7808.0,7496.0
1114,7811.0,7497.0
1115,7812.0,7501.0
1116,7818.0,7520.0
1117,7819.0,7530.0
1119,7822.0,7537.0
1122,7839.0,7538.0
1126,7840.0,7547.0
1127,7851.0,7562.0
1129,7857.0,7564.0
1130,7858.0,7565.0
1131,7861.0,7571.0
1133,7867.0,7573.0
1134,7870.0,7574.0
1135,7888.0,7599.0
1136,7889.0,7615.0
1137,7902.0,7647.0
1138,7912.0,7654.0
1141,7922.0,7677.0
1142,7951.0,7678.0
1143,7956.0,7685.0
1144,7962.0,7687.0
1146,7971.0,7694.0
1147,7981.0,7695.0
1149,7987.0,7703.0
1151,7991.0,7720.0
1152,7992.0,7721.0
1155,8003.0,7735.0
1156,8010.0,7738.0
1158,8012.0,7739.0
1160,8019.0,7740.0
1161,8036.0,7743.0
1162,8039.0,7747.0
1163,8045.0,7748.0
1164,8053.0,7766.0
1165,8056.0,7768.0
1166,8060.0,7771.0
1167,8069.0,7774.0
1168,8071.0,7782.0
1169,8078.0,7789.0
1171,8082.0,7793.0
1172,8085.0,7801.0
1173,8108.0,7829.0
1175,8112.0,7836.0
1176,8124.0,7848.0
1177,8127.0,7854.0
1178,8136.0,7855.0
1179,8146.0,7856.0
1180,8150.0,7874.0
1181,8153.0,7877.0
1182,8154.0,7882.0
1184,8162.0,7915.0
1185,8165.0,7952.0
1186,8166.0,7964.0
1187,8172.0,7977.0
1188,8185.0,7978.0
1190,8220.0,7994.0
1191,8235.0,8001.0
1192,8239.0,8028.0
1193,8241.0,8031.0
1194,8261.0,8037.0
1195,8267.0,8050.0
1196,8278.0,8058.0
1197,8295.0,8087.0
1198,8317.0,8094.0
1199,8324.0,8105.0
1200,8345.0,8109.0
1201,8347.0,8137.0
1202,8358.0,8145.0
1203,8363.0,8158.0
1204,8365.0,8187.0
1206,8369.0,8199.0
1208,8406.0,8201.0
1209,8440.0,8204.0
1210,8444.0,8217.0
1211,8460.0,8218.0
1212,8461.0,8229.0
1214,8471.0,8246.0
1215,8478.0,8271.0
1216,8492.0,8303.0
1217,8501.0,8314.0
1218,8519.0,8327.0
1219,8537.0,8338.0
1220,8539.0,8351.0
1221,8541.0,8368.0
1223,8543.0,8385.0
1224,8565.0,8386.0
1225,8567.0,8389.0
1226,8588.0,8398.0
1227,8595.0,8399.0
1228,8623.0,8400.0
1229,8650.0,8403.0
1230,8675.0,8416.0
1231,8704.0,8423.0
1232,8711.0,8446.0
1233,8722.0,8469.0
1234,8734.0,8481.0
1235,8767.0,8486.0
1236,8778.0,8528.0
1237,8807.0,8529.0
1240,8812.0,8556.0
1241,8816.0,8586.0
1242,8826.0,8590.0
1243,8830.0,8596.0
1247,8831.0,8624.0
1248,8833.0,8627.0
1249,8838.0,8632.0
1250,8848.0,8634.0
1252,8849.0,8660.0
1255,8859.0,8676.0
1257,8862.0,8679.0
1258,8866.0,8685.0
1259,8888.0,8686.0
1260,8895.0,8705.0
1262,8902.0,8712.0
1263,8903.0,8714.0
1264,8906.0,8715.0
1266,8912.0,8728.0
1267,8925.0,8740.0
1269,8926.0,8748.0
1270,8933.0,8768.0
1271,8948.0,8799.0
1272,8950.0,8800.0
1273,8952.0,8810.0
1275,8957.0,8822.0
1276,8958.0,8839.0
1277,8962.0,8844.0
1278,8968.0,8854.0
1279,8969.0,8856.0
1280,8970.0,8864.0
1281,8976.0,8865.0
1282,8989.0,8875.0
1283,8994.0,8899.0
1284,9004.0,8900.0
1285,9011.0,8908.0
1286,9013.0,8911.0
1287,9020.0,8913.0
1288,9028.0,8931.0
1289,9032.0,8936.0
1290,9043.0,8937.0
1291,9050.0,8943.0
1292,9061.0,8955.0
1293,9067.0,8964.0
1294,9070.0,8965.0
1296,9099.0,8972.0
1297,9107.0,8975.0
1298,9121.0,8986.0
1299,9142.0,8999.0
1300,9143.0,9000.0
1301,9150.0,9018.0
1302,9155.0,9073.0
1303,9168.0,9074.0
1304,9169.0,9075.0
1305,9184.0,9108.0
1306,9186.0,9139.0
1308,9187.0,9149.0
1312,9189.0,9151.0
1313,9190.0,9153.0
1314,9202.0,9162.0
1316,9211.0,9167.0
1317,9215.0,9170.0
1319,9242.0,9174.0
1320,9245.0,9185.0
1321,9252.0,9188.0
1324,9253.0,9192.0
1326,9258.0,9194.0
1327,9259.0,9201.0
1328,9260.0,9205.0
1329,9278.0,9207.0
1330,9284.0,9208.0
1331,9285.0,9210.0
1332,9289.0,9221.0
1333,9297.0,9225.0
1334,9304.0,9227.0
1335,9321.0,9231.0
1337,9325.0,9246.0
1340,9327.0,9264.0
1341,9376.0,9271.0
1343,9384.0,9281.0
1344,9385.0,9288.0
1348,9388.0,9301.0
1349,9391.0,9306.0
1350,9394.0,9309.0
1351,9395.0,9312.0
1352,9410.0,9314.0
1354,9412.0,9317.0
1357,9414.0,9319.0
1358,9419.0,9336.0
1359,9422.0,9352.0
1360,9450.0,9355.0
1361,9472.0,9357.0
1362,9474.0,9369.0
1363,9496.0,9382.0
1364,9517.0,9400.0
1365,9549.0,9402.0
1367,9556.0,9404.0
1368,9617.0,9434.0
1369,9621.0,9435.0
1371,9631.0,9436.0
1372,9640.0,9440.0
1373,9678.0,9441.0
1376,9684.0,9453.0
1378,9698.0,9463.0
1379,9704.0,9469.0
1380,9711.0,9470.0
1381,9719.0,9482.0
1383,9734.0,9491.0
1385,9735.0,9493.0
1387,9749.0,9498.0
1388,9750.0,9499.0
1389,9756.0,9500.0
1390,9794.0,9510.0
1391,9795.0,9538.0
1392,9805.0,9548.0
1393,9809.0,9555.0
1394,9820.0,9558.0
1395,9825.0,9559.0
1397,9843.0,9564.0
1398,9844.0,9565.0
1399,9853.0,9568.0
1400,9859.0,9569.0
1401,9872.0,9587.0
1403,9891.0,9611.0
1404,9904.0,9618.0
1405,9937.0,9651.0
1406,9971.0,9657.0
1407,9984.0,9663.0
1408,9989.0,9682.0
1410,9992.0,9693.0
1411,9999.0,9718.0
1413,10006.0,9727.0
1414,10018.0,9729.0
1416,10041.0,9768.0
1418,10081.0,9772.0
1421,10086.0,9778.0
1422,10087.0,9779.0
1423,10097.0,9784.0
1424,10117.0,9791.0
1426,10119.0,9798.0
1430,10131.0,9814.0
1431,10132.0,9829.0
1433,10133.0,9839.0
1434,10143.0,9860.0
1436,10145.0,9874.0
1438,10151.0,9878.0
1439,10174.0,9880.0
1441,10200.0,9890.0
1444,10201.0,9895.0
1445,10204.0,9896.0
1446,10222.0,9926.0
1448,10225.0,9928.0
1449,10231.0,9944.0
1450,10234.0,9961.0
1451,10274.0,9962.0
1452,10282.0,9972.0
1454,10291.0,10010.0
1455,10303.0,10012.0
1456,10319.0,10021.0
1458,10331.0,10031.0
1459,10346.0,10039.0
1460,10358.0,10048.0
1461,10360.0,10061.0
1462,10361.0,10062.0
1463,10367.0,10064.0
1465,10377.0,10068.0
1467,10382.0,10069.0
1468,10388.0,10100.0
1469,10389.0,10124.0
1470,10391.0,10137.0
1472,10395.0,10152.0
1473,10410.0,10213.0
1474,10412.0,10228.0
1475,10425.0,10241.0
1476,10426.0,10248.0
1477,10428.0,10264.0
1478,10434.0,10294.0
1480,10445.0,10295.0
1481,10449.0,10300.0
1482,10457.0,10322.0
1483,10458.0,10351.0
1484,10462.0,10359.0
1485,10463.0,10381.0
1486,10501.0,10401.0
1488,10502.0,10407.0
1489,10509.0,10413.0
1492,10518.0,10422.0
1493,10526.0,10429.0
1495,10527.0,10435.0
1496,10542.0,10447.0
1499,10553.0,10451.0
1501,10556.0,10456.0
1503,10564.0,10459.0
1504,10577.0,10484.0
1505,10604.0,10487.0
1506,10606.0,10497.0
1507,10618.0,10511.0
1508,10640.0,10531.0
1509,10650.0,10533.0
1510,10659.0,10537.0
1511,10675.0,10574.0
1512,10680.0,10602.0
1514,10686.0,10614.0
1515,10690.0,10620.0
1516,10698.0,10626.0
1517,10702.0,10627.0
1518,10703.0,10633.0
1519,10745.0,10634.0
1520,10752.0,10635.0
1522,10784.0,10644.0
1524,10802.0,10651.0
1525,10806.0,10656.0
1527,10816.0,10662.0
1529,10817.0,10665.0
1533,10830.0,10678.0
1534,10833.0,10688.0
1535,10852.0,10691.0
1536,10863.0,10705.0
1537,10871.0,10709.0
1538,10876.0,10713.0
1539,10886.0,10720.0
1540,10893.0,10756.0
1541,10902.0,10759.0
1542,10911.0,10767.0
1543,10914.0,10768.0
1544,10935.0,10796.0
1545,10944.0,10807.0
1546,10954.0,10814.0
1547,10964.0,10815.0
1548,10974.0,10821.0
1549,10977.0,10835.0
1550,10987.0,10844.0
1551,11000.0,10847.0
1552,11006.0,10867.0
1553,11017.0,10869.0
1554,11084.0,10897.0
1555,11108.0,10947.0
1556,11111.0,10957.0
1557,11120.0,10971.0
1558,11122.0,10985.0
1559,11124.0,10991.0
1560,11132.0,10997.0
1561,11137.0,10998.0
1562,11145.0,11004.0
1563,11148.0,11007.0
1564,11153.0,11013.0
1565,11184.0,11016.0
1566,11192.0,11025.0
1567,11193.0,11028.0
1568,11197.0,11033.0
1569,11204.0,11037.0
1571,11208.0,11066.0
1572,11235.0,11085.0
1573,11238.0,11096.0
1574,11244.0,11103.0
1576,11264.0,11106.0
1577,11265.0,11131.0
1578,11312.0,11136.0
1579,11317.0,11161.0
1581,11328.0,11201.0
1582,11335.0,11209.0
1583,11349.0,11222.0
1584,11354.0,11226.0
1585,11357.0,11228.0
1586,11365.0,11242.0
1588,11373.0,11259.0
1589,11377.0,11270.0
1590,11391.0,11285.0
1591,11417.0,11301.0
1592,11422.0,11313.0
1593,11429.0,11325.0
1594,11453.0,11329.0
1595,11478.0,11336.0
1596,11480.0,11364.0
1597,11512.0,11367.0
1599,11514.0,11369.0
1601,11522.0,11399.0
1602,11529.0,11419.0
1603,11530.0,11430.0
1605,11531.0,11436.0
1606,11546.0,11440.0
1607,11563.0,11544.0
1608,11573.0,11553.0
1609,11577.0,11560.0
1611,11611.0,11591.0
1612,11616.0,11598.0
1613,11642.0,11607.0
1614,11648.0,11626.0
1615,11657.0,11627.0
1616,11658.0,11639.0
1618,11660.0,11649.0
1620,11672.0,11654.0
1621,11681.0,11668.0
1622,11713.0,11669.0
1624,11727.0,11690.0
1628,11733.0,11699.0
1629,11772.0,11730.0
1630,11780.0,11737.0
1632,11789.0,11745.0
1633,11791.0,11750.0
1634,11796.0,11768.0
1636,11809.0,11770.0
1637,11821.0,11803.0
1638,11823.0,11808.0
1639,11829.0,11814.0
1640,11852.0,11815.0
1641,11855.0,11820.0
1644,11857.0,11826.0
1645,11871.0,11835.0
1646,11872.0,11864.0
1648,11874.0,11865.0
1649,11878.0,11866.0
1651,11887.0,11867.0
1653,11900.0,11870.0
1655,11902.0,11876.0
1658,11908.0,11880.0
1660,11912.0,11901.0
1661,11915.0,11904.0
1662,11922.0,11905.0
1663,11923.0,11911.0
1667,11927.0,11929.0
1668,11935.0,11930.0
1669,11938.0,11931.0
1670,11941.0,11932.0
1671,11945.0,11933.0
1672,11948.0,11952.0
1675,11949.0,11954.0
1676,11956.0,11958.0
1677,11972.0,11975.0
1678,11989.0,11977.0
1679,12006.0,11983.0
1680,12022.0,12005.0
1681,12043.0,12016.0
1682,12054.0,12031.0
1685,12056.0,12047.0
1686,12064.0,12048.0
1687,12066.0,12090.0
1688,12072.0,12091.0
1689,12078.0,12106.0
1690,12085.0,12111.0
1691,12094.0,12114.0
1692,12097.0,12117.0
1693,12102.0,12125.0
1696,12103.0,12128.0
1697,12112.0,12129.0
1698,12121.0,12130.0
1699,12126.0,12132.0
1700,12133.0,12155.0
1701,12162.0,12160.0
1702,12173.0,12165.0
1704,12194.0,12187.0
1705,12203.0,12192.0
1707,12208.0,12197.0
1708,12215.0,12214.0
1709,12219.0,12216.0
1710,12224.0,12233.0
1712,12232.0,12270.0
1713,12241.0,12281.0
1714,12260.0,12318.0
1716,12265.0,12328.0
1718,12285.0,12352.0
1719,12292.0,12355.0
1720,12302.0,12356.0
1721,12338.0,12377.0
1722,12341.0,12387.0
1724,12347.0,12396.0
1728,12392.0,12399.0
1729,12393.0,12402.0
1730,12395.0,12404.0
1731,12397.0,12405.0
1732,12413.0,12406.0
1733,12417.0,12411.0
1734,12424.0,12412.0
1735,12433.0,12425.0
1736,12437.0,12426.0
1737,12439.0,12428.0
1739,12469.0,12432.0
1740,12470.0,12447.0
1741,12499.0,12451.0
1742,12525.0,12457.0
1743,12543.0,12482.0
1745,12546.0,12490.0
1746,12550.0,12494.0
1747,12565.0,12501.0
1750,12566.0,12515.0
1752,12567.0,12530.0
1754,12580.0,12535.0
1755,12586.0,12540.0
1757,12590.0,12544.0
1758,12595.0,12572.0
1762,12610.0,12592.0
1764,12633.0,12593.0
1765,12653.0,12598.0
1766,12685.0,12604.0
1767,12699.0,12614.0
1768,12703.0,12615.0
1769,12708.0,12645.0
1771,12713.0,12650.0
1772,12756.0,12658.0
1773,12763.0,12671.0
1774,12770.0,12674.0
1775,12772.0,12678.0
1778,12776.0,12681.0
1779,12823.0,12697.0
1780,12861.0,12704.0
1781,12862.0,12706.0
1782,12864.0,12730.0
1785,12884.0,12731.0
1786,12886.0,12751.0
1787,12896.0,12790.0
1788,12935.0,12791.0
1789,12947.0,12796.0
1792,12951.0,12829.0
1793,12962.0,12857.0
1794,12967.0,12870.0
1795,12978.0,12879.0
1796,12979.0,12890.0
1797,12985.0,12901.0
1798,12995.0,12913.0
1799,13005.0,12916.0
1801,13023.0,12918.0
1804,13030.0,12924.0
1805,13047.0,12943.0
1806,13077.0,12949.0
1808,13119.0,12961.0
1809,13158.0,12966.0
1810,13179.0,12968.0
1811,13182.0,12993.0
1812,13194.0,13002.0
1813,13199.0,13003.0
1814,13211.0,13024.0
1815,13223.0,13037.0
1816,13227.0,13038.0
1817,13234.0,13045.0
1818,13254.0,13064.0
1820,13256.0,13107.0
1822,13258.0,13113.0
1823,13278.0,13122.0
1825,13284.0,13125.0
1826,13289.0,13133.0
1827,13293.0,13152.0
1828,13302.0,13154.0
1829,13308.0,13163.0
1832,13325.0,13165.0
1833,13335.0,13166.0
1834,13337.0,13178.0
1835,13348.0,13186.0
1839,13358.0,13188.0
1843,13368.0,13190.0
1844,13373.0,13202.0
1845,13375.0,13209.0
1848,13382.0,13213.0
1851,13388.0,13215.0
1852,13393.0,13222.0
1853,13396.0,13242.0
1856,13398.0,13243.0
1858,13404.0,13249.0
1859,13419.0,13266.0
1860,13422.0,13270.0
1861,13433.0,13272.0
1864,13436.0,13276.0
1865,13437.0,13280.0
1867,13441.0,13281.0
1868,13456.0,13305.0
1869,13459.0,13323.0
1870,13480.0,13326.0
1872,13494.0,13334.0
1877,13515.0,13341.0
1879,13522.0,13349.0
1880,13533.0,13370.0
1881,13539.0,13384.0
1882,13560.0,13387.0
1885,13568.0,13397.0
1888,13586.0,13399.0
1889,13600.0,13401.0
1891,13609.0,13402.0
1892,13618.0,13409.0
1893,13630.0,13410.0
1894,13635.0,13411.0
1895,13637.0,13412.0
1897,13646.0,13423.0
1898,13656.0,13424.0
1899,13657.0,13435.0
1900,13663.0,13443.0
1902,13664.0,13450.0
1903,13673.0,13463.0
1904,13674.0,13475.0
1905,13680.0,13490.0
1907,13681.0,13519.0
1908,13684.0,13520.0
1909,13688.0,13529.0
1910,13691.0,13563.0
1911,13698.0,13570.0
1912,13701.0,13579.0
1913,13709.0,13581.0
1915,13723.0,13610.0
1917,13734.0,13613.0
1918,13762.0,13634.0
1920,13765.0,13636.0
1921,13766.0,13661.0
1923,13767.0,13668.0
1924,13775.0,13700.0
1925,13780.0,13750.0
1926,13781.0,13751.0
1927,13784.0,13753.0
1928,13799.0,13774.0
1929,13802.0,13793.0
1930,13807.0,13796.0
1931,13810.0,13798.0
1932,13812.0,13826.0
1933,13825.0,13832.0
1936,13835.0,13842.0
1937,13865.0,13849.0
1938,13867.0,13850.0
1939,13869.0,13855.0
1940,13871.0,13866.0
1942,13878.0,13884.0
1943,13885.0,13915.0
1944,13910.0,13928.0
1945,13919.0,13932.0
1947,13923.0,13945.0
1948,13925.0,13946.0
1949,13927.0,13956.0
1950,13929.0,13960.0
1951,13936.0,13967.0
1952,13938.0,13969.0
1953,13948.0,13996.0
1954,13950.0,14015.0
1955,13955.0,14017.0
1956,13977.0,14018.0
1957,13989.0,14020.0
1958,13997.0,14030.0
1959,14012.0,14033.0
1960,14026.0,14034.0
1961,14027.0,14044.0
1962,14043.0,14061.0
1963,14045.0,14065.0
1965,14054.0,14080.0
1966,14059.0,14089.0
1967,14063.0,14116.0
1968,14066.0,14122.0
1969,14067.0,14125.0
1971,14079.0,14140.0
1972,14085.0,14141.0
1973,14093.0,14155.0
1974,14096.0,14184.0
1976,14111.0,14189.0
1977,14113.0,14214.0
1979,14120.0,14233.0
1980,14128.0,14239.0
1981,14137.0,14240.0
1984,14139.0,14251.0
1985,14147.0,14258.0
1986,14163.0,14260.0
1987,14180.0,14274.0
1989,14185.0,14296.0
1990,14211.0,14306.0
1991,14220.0,14338.0
1993,14227.0,14357.0
1995,14235.0,14358.0
1997,14250.0,14362.0
1998,14255.0,14365.0
1999,14297.0,14373.0
2000,14317.0,14378.0
2001,14319.0,14393.0
2003,14323.0,14394.0
2004,14339.0,14397.0
2005,14341.0,14399.0
2007,14344.0,14408.0
2008,14345.0,14411.0
2009,14346.0,14423.0
2010,14354.0,14424.0
2011,14359.0,14427.0
2013,14361.0,14429.0
2015,14404.0,14440.0
2016,14420.0,14449.0
2019,14421.0,14451.0
2020,14425.0,14459.0
2021,14428.0,14461.0
2023,14434.0,14463.0
2024,14436.0,14466.0
2025,14444.0,14467.0
2026,14448.0,14475.0
2029,14454.0,14479.0
2032,14456.0,14481.0
2033,14473.0,14492.0
2034,14483.0,14498.0
2035,14484.0,14513.0
2036,14487.0,14519.0
2037,14490.0,14522.0
2038,14491.0,14525.0
2040,14516.0,14534.0
2041,14532.0,14537.0
2042,14538.0,14542.0
2043,14553.0,14563.0
2044,14561.0,14595.0
2045,14615.0,14600.0
2046,14621.0,14623.0
2047,14628.0,14640.0
2048,14664.0,14641.0
2051,14684.0,14668.0
2052,14693.0,14701.0
2054,14703.0,14706.0
2055,14704.0,14707.0
2056,14716.0,14724.0
2057,14730.0,14729.0
2058,14737.0,14731.0
2059,14738.0,14745.0
2060,14742.0,14844.0
2061,14792.0,14849.0
2062,14794.0,14853.0
2064,14799.0,14861.0
2065,14800.0,14865.0
2066,14804.0,14866.0
2067,14812.0,14874.0
2068,14846.0,14887.0
2069,14872.0,14893.0
2070,14898.0,14896.0
2072,14918.0,14899.0
2073,14933.0,14909.0
2074,14936.0,14917.0
2075,15020.0,14920.0
2076,15029.0,14921.0
2077,15032.0,14924.0
2078,15037.0,14925.0
2079,15054.0,14939.0
2082,15061.0,14944.0
2085,15065.0,14946.0
2086,15067.0,14969.0
2087,15101.0,14970.0
2088,15128.0,14980.0
2089,15130.0,14987.0
2090,15132.0,15004.0
2092,15143.0,15012.0
2093,15151.0,15016.0
2094,15154.0,15027.0
2095,15160.0,15041.0
2096,15164.0,15043.0
2097,15208.0,15050.0
2098,15211.0,15060.0
2099,15215.0,15066.0
2100,15217.0,15068.0
2103,15230.0,15100.0
2104,15232.0,15108.0
2106,15243.0,15115.0
2107,15251.0,15126.0
2108,15284.0,15127.0
2109,15311.0,15137.0
2110,15326.0,15161.0
2113,15386.0,15167.0
2114,15396.0,15183.0
2115,15402.0,15191.0
2116,15419.0,15212.0
2117,15424.0,15223.0
2119,15434.0,15239.0
2120,15477.0,15249.0
2121,15482.0,15250.0
2122,15491.0,15342.0
2123,15492.0,15361.0
2124,15525.0,15370.0
2125,15526.0,15372.0
2126,15529.0,15380.0
2127,15543.0,15394.0
2128,15551.0,15410.0
2129,15560.0,15444.0
2130,15561.0,15446.0
2132,15562.0,15454.0
2133,15565.0,15483.0
2135,15568.0,15487.0
2136,15580.0,15502.0
2137,15604.0,15519.0
2138,15694.0,15520.0
2139,15718.0,15538.0
2140,15740.0,15558.0
2142,15747.0,15589.0
2143,15758.0,15599.0
2145,15788.0,15603.0
2146,15862.0,15605.0
2147,15874.0,15614.0
2148,15877.0,15639.0
2149,15906.0,15643.0
2152,15913.0,15651.0
2153,15967.0,15657.0
2155,15988.0,15663.0
2158,16003.0,15685.0
2159,16017.0,15690.0
2160,16074.0,15698.0
2162,16075.0,15703.0
2163,16095.0,15732.0
2164,16179.0,15739.0
2165,16188.0,15744.0
2166,16197.0,15753.0
2167,16204.0,15782.0
2168,16237.0,15795.0
2169,16243.0,15798.0
2171,,15818.0
2172,,15889.0
2173,,15922.0
2175,,15936.0
2176,,15939.0
2177,,15979.0
2178,,16064.0
2180,,16091.0
2181,,16221.0
2182,,16224.0
2184,,16228.0
2185,,16229.0
2186,,16235.0
2187,,
2188,,
2189,,
2193,,
2194,,
2195,,
2196,,
2197,,
2200,,
2203,,
2205,,
2206,,
2207,,
2208,,
2209,,
2210,,
2211,,
2212,,
2214,,
2216,,
2218,,
2219,,
2220,,
2221,,
2222,,
2223,,
2224,,
2226,,
2229,,
2230,,
2231,,
2232,,
2233,,
2236,,
2237,,
2238,,
2239,,
2240,,
2241,,
2242,,
2244,,
2247,,
2249,,
2250,,
2251,,
2252,,
2253,,
2257,,
2259,,
2262,,
2263,,
2264,,
2266,,
2268,,
2269,,
2275,,
2276,,
2277,,
2278,,
2279,,
2281,,
2282,,
2284,,
2285,,
2286,,
2287,,
2288,,
2289,,
2290,,
2293,,
2295,,
2296,,
2298,,
2299,,
2300,,
2301,,
2302,,
2303,,
2304,,
2305,,
2307,,
2308,,
2309,,
2312,,
2313,,
2314,,
2315,,
2316,,
2317,,
2318,,
2319,,
2320,,
2321,,
2323,,
2324,,
2325,,
2326,,
2327,,
2328,,
2329,,
2330,,
2331,,
2332,,
2334,,
2335,,
2336,,
2337,,
2339,,
2341,,
2342,,
2343,,
2345,,
2346,,
2347,,
2348,,
2350,,
2353,,
2354,,
2355,,
2356,,
2359,,
2360,,
2361,,
2362,,
2364,,
2365,,
2366,,
2367,,
2368,,
2369,,
2370,,
2371,,
2372,,
2374,,
2375,,
2376,,
2378,,
2380,,
2381,,
2383,,
2384,,
2386,,
2387,,
2389,,
2390,,
2391,,
2392,,
2393,,
2394,,
2395,,
2396,,
2397,,
2399,,
2400,,
2401,,
2403,,
2404,,
2407,,
2408,,
2409,,
2410,,
2411,,
2412,,
2413,,
2414,,
2416,,
2417,,
2420,,
2421,,
2422,,
2423,,
2424,,
2425,,
2426,,
2427,,
2428,,
2429,,
2430,,
2431,,
2432,,
2433,,
2435,,
2436,,
2437,,
2438,,
2439,,
2441,,
2442,,
2443,,
2445,,
2446,,
2447,,
2450,,
2451,,
2453,,
2454,,
2455,,
2457,,
2458,,
2459,,
2460,,
2461,,
2462,,
2463,,
2464,,
2465,,
2466,,
2467,,
2468,,
2469,,
2471,,
2473,,
2474,,
2475,,
2476,,
2477,,
2478,,
2479,,
2481,,
2483,,
2484,,
2485,,
2486,,
2487,,
2488,,
2489,,
2490,,
2492,,
2493,,
2494,,
2495,,
2496,,
2497,,
2498,,
2499,,
2500,,
2501,,
2504,,
2505,,
2506,,
2508,,
2509,,
2510,,
2511,,
2512,,
2513,,
2514,,
2515,,
2516,,
2517,,
2518,,
2519,,
2520,,
2521,,
2522,,
2523,,
2524,,
2525,,
2529,,
2530,,
2531,,
2532,,
2535,,
2536,,
2537,,
2538,,
2539,,
2541,,
2542,,
2543,,
2544,,
2545,,
2546,,
2547,,
2548,,
2549,,
2550,,
2551,,
2552,,
2553,,
2555,,
2556,,
2557,,
2558,,
2560,,
2564,,
2565,,
2567,,
2568,,
2569,,
2570,,
2571,,
2572,,
2573,,
2575,,
2577,,
2579,,
2582,,
2583,,
2584,,
2585,,
2587,,
2588,,
2589,,
2591,,
2592,,
2594,,
2595,,
2597,,
2598,,
2599,,
2601,,
2602,,
2603,,
2604,,
2606,,
2607,,
2608,,
2609,,
2610,,
2611,,
2613,,
2614,,
2615,,
2616,,
2618,,
2619,,
2620,,
2621,,
2622,,
2623,,
2624,,
2625,,
2626,,
2627,,
2629,,
2630,,
2632,,
2634,,
2636,,
2637,,
2638,,
2640,,
2642,,
2643,,
2644,,
2645,,
2646,,
2647,,
2648,,
2649,,
2650,,
2651,,
2652,,
2653,,
2655,,
2657,,
2658,,
2660,,
2661,,
2662,,
2663,,
2664,,
2666,,
2667,,
2668,,
2670,,
2671,,
2672,,
2673,,
2674,,
2675,,
2676,,
2677,,
2678,,
2679,,
2680,,
2681,,
2682,,
2683,,
2684,,
2685,,
2687,,
2688,,
2690,,
2691,,
2692,,
2693,,
2694,,
2697,,
2698,,
2699,,
2700,,
2702,,
2704,,
2705,,
2706,,
2707,,
2710,,
2711,,
2712,,
2713,,
2715,,
2718,,
2719,,
2720,,
2722,,
2723,,
2725,,
2726,,
2727,,
2729,,
2730,,
2731,,
2732,,
2733,,
2735,,
2736,,
2737,,
2738,,
2739,,
2740,,
2741,,
2742,,
2743,,
2745,,
2746,,
2747,,
2748,,
2749,,
2750,,
2751,,
2752,,
2753,,
2755,,
2756,,
2757,,
2759,,
2760,,
2761,,
2763,,
2764,,
2765,,
2767,,
2769,,
2770,,
2772,,
2773,,
2774,,
2775,,
2778,,
2779,,
2781,,
2783,,
2785,,
2786,,
2790,,
2792,,
2793,,
2795,,
2796,,
2797,,
2798,,
2799,,
2800,,
2802,,
2803,,
2804,,
2805,,
2806,,
2810,,
2811,,
2814,,
2815,,
2816,,
2817,,
2818,,
2819,,
2820,,
2824,,
2825,,
2826,,
2827,,
2829,,
2830,,
2832,,
2833,,
2836,,
2837,,
2839,,
2840,,
2841,,
2842,,
2843,,
2844,,
2845,,
2846,,
2848,,
2849,,
2850,,
2852,,
2853,,
2854,,
2855,,
2856,,
2858,,
2859,,
2861,,
2863,,
2865,,
2866,,
2868,,
2870,,
2872,,
2873,,
2875,,
2876,,
2877,,
2878,,
2879,,
2880,,
2881,,
2882,,
2883,,
2884,,
2886,,
2887,,
2888,,
2889,,
2890,,
2891,,
2892,,
2893,,
2894,,
2896,,
2897,,
2898,,
2899,,
2901,,
2902,,
2903,,
2904,,
2905,,
2906,,
2910,,
2911,,
2912,,
2913,,
2915,,
2916,,
2917,,
2918,,
2919,,
2920,,
2923,,
2924,,
2925,,
2926,,
2927,,
2928,,
2929,,
2930,,
2931,,
2934,,
2935,,
2939,,
2941,,
2945,,
2947,,
2948,,
2949,,
2950,,
2951,,
2952,,
2953,,
2954,,
2956,,
2957,,
2958,,
2959,,
2960,,
2962,,
2964,,
2965,,
2966,,
2967,,
2968,,
2969,,
2970,,
2971,,
2972,,
2973,,
2974,,
2975,,
2976,,
2977,,
2978,,
2979,,
2980,,
2982,,
2983,,
2985,,
2986,,
2987,,
2988,,
2989,,
2990,,
2991,,
2994,,
2997,,
2998,,
2999,,
3000,,
3002,,
3003,,
3004,,
3005,,
3007,,
3008,,
3009,,
3011,,
3012,,
3015,,
3016,,
3019,,
3020,,
3023,,
3028,,
3029,,
3030,,
3032,,
3034,,
3035,,
3036,,
3037,,
3038,,
3039,,
3040,,
3041,,
3043,,
3045,,
3046,,
3047,,
3048,,
3052,,
3053,,
3054,,
3055,,
3056,,
3057,,
3058,,
3059,,
3060,,
3061,,
3062,,
3063,,
3065,,
3066,,
3067,,
3068,,
3069,,
3070,,
3071,,
3072,,
3073,,
3075,,
3077,,
3078,,
3079,,
3080,,
3081,,
3082,,
3083,,
3084,,
3085,,
3086,,
3087,,
3088,,
3089,,
3090,,
3091,,
3093,,
3094,,
3095,,
3096,,
3097,,
3098,,
3100,,
3102,,
3103,,
3104,,
3105,,
3106,,
3107,,
3110,,
3111,,
3113,,
3114,,
3115,,
3116,,
3117,,
3118,,
3119,,
3120,,
3121,,
3122,,
3124,,
3125,,
3126,,
3127,,
3130,,
3131,,
3132,,
3133,,
3134,,
3135,,
3137,,
3138,,
3140,,
3141,,
3142,,
3143,,
3144,,
3145,,
3146,,
3148,,
3149,,
3150,,
3152,,
3153,,
3154,,
3156,,
3157,,
3158,,
3159,,
3160,,
3163,,
3165,,
3167,,
3168,,
3169,,
3171,,
3172,,
3173,,
3174,,
3176,,
3177,,
3180,,
3182,,
3183,,
3184,,
3185,,
3186,,
3187,,
3188,,
3189,,
3191,,
3192,,
3193,,
3194,,
3195,,
3197,,
3199,,
3200,,
3201,,
3203,,
3204,,
3205,,
3206,,
3208,,
3209,,
3210,,
3211,,
3214,,
3215,,
3216,,
3217,,
3218,,
3219,,
3221,,
3223,,
3224,,
3225,,
3227,,
3228,,
3230,,
3231,,
3232,,
3233,,
3234,,
3235,,
3236,,
3238,,
3239,,
3240,,
3241,,
3242,,
3245,,
3246,,
3248,,
3251,,
3253,,
3254,,
3255,,
3256,,
3258,,
3260,,
3261,,
3266,,
3269,,
3270,,
3271,,
3273,,
3274,,
3277,,
3278,,
3281,,
3282,,
3283,,
3284,,
3285,,
3287,,
3288,,
3290,,
3291,,
3293,,
3294,,
3297,,
3298,,
3300,,
3302,,
3304,,
3305,,
3306,,
3307,,
3309,,
3312,,
3314,,
3315,,
3316,,
3317,,
3319,,
3320,,
3321,,
3322,,
3323,,
3324,,
3325,,
3328,,
3329,,
3330,,
3331,,
3332,,
3333,,
3334,,
3335,,
3336,,
3337,,
3338,,
3339,,
3340,,
3341,,
3342,,
3344,,
3345,,
3346,,
3347,,
3348,,
3349,,
3350,,
3351,,
3352,,
3353,,
3356,,
3357,,
3358,,
3359,,
3360,,
3361,,
3362,,
3363,,
3364,,
3365,,
3366,,
3367,,
3368,,
3369,,
3371,,
3372,,
3373,,
3374,,
3376,,
3377,,
3379,,
3380,,
3381,,
3382,,
3383,,
3384,,
3385,,
3386,,
3387,,
3388,,
3389,,
3390,,
3391,,
3392,,
3393,,
3394,,
3395,,
3397,,
3399,,
3400,,
3401,,
3402,,
3403,,
3404,,
3405,,
3407,,
3408,,
3411,,
3413,,
3414,,
3415,,
3416,,
3417,,
3418,,
3419,,
3420,,
3422,,
3423,,
3424,,
3425,,
3426,,
3428,,
3429,,
3430,,
3431,,
3433,,
3436,,
3437,,
3438,,
3439,,
3440,,
3441,,
3442,,
3444,,
3445,,
3446,,
3447,,
3448,,
3449,,
3450,,
3452,,
3453,,
3454,,
3455,,
3456,,
3457,,
3459,,
3460,,
3461,,
3462,,
3463,,
3464,,
3469,,
3470,,
3471,,
3472,,
3473,,
3474,,
3475,,
3476,,
3478,,
3480,,
3481,,
3482,,
3483,,
3487,,
3488,,
3489,,
3490,,
3491,,
3492,,
3493,,
3495,,
3496,,
3497,,
3498,,
3499,,
3500,,
3501,,
3502,,
3503,,
3504,,
3505,,
3506,,
3507,,
3508,,
3509,,
3512,,
3515,,
3516,,
3517,,
3518,,
3519,,
3521,,
3522,,
3523,,
3525,,
3526,,
3527,,
3528,,
3530,,
3531,,
3533,,
3534,,
3536,,
3537,,
3538,,
3539,,
3540,,
3541,,
3542,,
3544,,
3545,,
3546,,
3547,,
3548,,
3549,,
3550,,
3551,,
3552,,
3553,,
3554,,
3555,,
3556,,
3557,,
3558,,
3559,,
3561,,
3562,,
3563,,
3565,,
3567,,
3568,,
3569,,
3570,,
3571,,
3572,,
3573,,
3574,,
3575,,
3576,,
3577,,
3578,,
3579,,
3580,,
3581,,
3582,,
3584,,
3585,,
3586,,
3588,,
3590,,
3591,,
3593,,
3594,,
3595,,
3596,,
3597,,
3598,,
3600,,
3601,,
3602,,
3603,,
3604,,
3606,,
3608,,
3609,,
3610,,
3612,,
3613,,
3614,,
3615,,
3617,,
3618,,
3619,,
3621,,
3622,,
3623,,
3624,,
3625,,
3627,,
3628,,
3629,,
3630,,
3631,,
3633,,
3634,,
3635,,
3636,,
3638,,
3639,,
3640,,
3641,,
3642,,
3644,,
3645,,
3646,,
3647,,
3649,,
3650,,
3651,,
3652,,
3653,,
3654,,
3655,,
3656,,
3657,,
3658,,
3659,,
3661,,
3664,,
3665,,
3666,,
3668,,
3670,,
3671,,
3672,,
3673,,
3674,,
3676,,
3678,,
3679,,
3680,,
3681,,
3682,,
3683,,
3684,,
3685,,
3686,,
3687,,
3690,,
3691,,
3692,,
3693,,
3694,,
3695,,
3696,,
3699,,
3700,,
3701,,
3702,,
3703,,
3705,,
3706,,
3707,,
3709,,
3710,,
3712,,
3713,,
3714,,
3715,,
3717,,
3719,,
3720,,
3722,,
3723,,
3724,,
3725,,
3726,,
3727,,
3728,,
3730,,
3731,,
3732,,
3733,,
3734,,
3735,,
3736,,
3737,,
3738,,
3739,,
3740,,
3741,,
3742,,
3743,,
3744,,
3745,,
3746,,
3747,,
3749,,
3751,,
3752,,
3754,,
3755,,
3756,,
3758,,
3759,,
3760,,
3761,,
3763,,
3764,,
3765,,
3766,,
3767,,
3768,,
3769,,
3770,,
3771,,
3773,,
3774,,
3775,,
3776,,
3777,,
3779,,
3780,,
3781,,
3782,,
3783,,
3784,,
3785,,
3786,,
3787,,
3788,,
3789,,
3790,,
3791,,
3792,,
3793,,
3794,,
3795,,
3798,,
3799,,
3800,,
3802,,
3804,,
3805,,
3806,,
3808,,
3809,,
3810,,
3811,,
3813,,
3814,,
3815,,
3818,,
3820,,
3821,,
3823,,
3826,,
3827,,
3828,,
3830,,
3831,,
3832,,
3833,,
3834,,
3835,,
3836,,
3837,,
3839,,
3842,,
3843,,
3845,,
3847,,
3848,,
3849,,
3850,,
3852,,
3854,,
3855,,
3856,,
3857,,
3858,,
3859,,
3860,,
3861,,
3862,,
3863,,
3864,,
3865,,
3866,,
3867,,
3868,,
3869,,
3870,,
3871,,
3872,,
3873,,
3874,,
3875,,
3876,,
3877,,
3878,,
3879,,
3880,,
3881,,
3882,,
3884,,
3886,,
3887,,
3888,,
3889,,
3890,,
3892,,
3893,,
3894,,
3895,,
3896,,
3897,,
3898,,
3899,,
3900,,
3901,,
3902,,
3903,,
3904,,
3905,,
3906,,
3907,,
3908,,
3909,,
3911,,
3912,,
3913,,
3914,,
3917,,
3918,,
3919,,
3920,,
3921,,
3922,,
3923,,
3924,,
3925,,
3926,,
3928,,
3929,,
3931,,
3932,,
3933,,
3934,,
3936,,
3937,,
3939,,
3940,,
3941,,
3942,,
3943,,
3944,,
3945,,
3947,,
3949,,
3950,,
3951,,
3952,,
3954,,
3956,,
3957,,
3958,,
3959,,
3960,,
3962,,
3964,,
3965,,
3966,,
3967,,
3968,,
3969,,
3970,,
3972,,
3973,,
3975,,
3976,,
3977,,
3978,,
3979,,
3980,,
3981,,
3982,,
3983,,
3984,,
3985,,
3987,,
3988,,
3989,,
3990,,
3991,,
3992,,
3993,,
3995,,
3996,,
3998,,
3999,,
4000,,
4002,,
4003,,
4004,,
4005,,
4006,,
4007,,
4008,,
4009,,
4010,,
4011,,
4012,,
4013,,
4014,,
4015,,
4016,,
4017,,
4018,,
4019,,
4020,,
4021,,
4022,,
4023,,
4024,,
4025,,
4026,,
4027,,
4030,,
4031,,
4032,,
4034,,
4035,,
4036,,
4037,,
4039,,
4040,,
4041,,
4042,,
4044,,
4045,,
4046,,
4047,,
4051,,
4054,,
4055,,
4056,,
4057,,
4058,,
4059,,
4060,,
4061,,
4062,,
4066,,
4068,,
4070,,
4071,,
4072,,
4073,,
4074,,
4075,,
4076,,
4077,,
4078,,
4080,,
4081,,
4082,,
4083,,
4084,,
4085,,
4087,,
4088,,
4089,,
4090,,
4092,,
4093,,
4096,,
4098,,
4100,,
4101,,
4102,,
4103,,
4104,,
4105,,
4106,,
4107,,
4109,,
4110,,
4111,,
4112,,
4113,,
4114,,
4115,,
4116,,
4119,,
4121,,
4122,,
4123,,
4125,,
4126,,
4127,,
4128,,
4129,,
4132,,
4134,,
4135,,
4136,,
4137,,
4138,,
4139,,
4141,,
4142,,
4143,,
4144,,
4147,,
4148,,
4149,,
4150,,
4152,,
4153,,
4155,,
4156,,
4157,,
4158,,
4159,,
4160,,
4161,,
4162,,
4165,,
4166,,
4167,,
4168,,
4169,,
4171,,
4172,,
4174,,
4175,,
4177,,
4178,,
4179,,
4181,,
4183,,
4184,,
4185,,
4186,,
4187,,
4188,,
4189,,
4192,,
4193,,
4194,,
4195,,
4196,,
4197,,
4198,,
4199,,
4200,,
4202,,
4203,,
4204,,
4205,,
4206,,
4207,,
4209,,
4210,,
4211,,
4212,,
4213,,
4214,,
4215,,
4216,,
4217,,
4218,,
4219,,
4220,,
4221,,
4222,,
4223,,
4224,,
4225,,
4226,,
4227,,
4228,,
4229,,
4230,,
4231,,
4233,,
4234,,
4235,,
4236,,
4237,,
4238,,
4240,,
4241,,
4242,,
4243,,
4245,,
4246,,
4247,,
4248,,
4249,,
4250,,
4251,,
4252,,
4253,,
4254,,
4255,,
4256,,
4257,,
4258,,
4259,,
4260,,
4261,,
4262,,
4263,,
4267,,
4268,,
4269,,
4271,,
4272,,
4273,,
4274,,
4277,,
4278,,
4279,,
4280,,
4281,,
4282,,
4283,,
4284,,
4286,,
4287,,
4289,,
4290,,
4292,,
4293,,
4294,,
4296,,
4297,,
4298,,
4299,,
4300,,
4301,,
4302,,
4303,,
4305,,
4306,,
4307,,
4308,,
4310,,
4311,,
4312,,
4314,,
4315,,
4316,,
4317,,
4320,,
4321,,
4322,,
4323,,
4324,,
4325,,
4326,,
4327,,
4328,,
4329,,
4330,,
4331,,
4332,,
4333,,
4335,,
4336,,
4337,,
4338,,
4339,,
4340,,
4341,,
4342,,
4344,,
4345,,
4346,,
4347,,
4348,,
4349,,
4351,,
4352,,
4353,,
4354,,
4355,,
4356,,
4357,,
4358,,
4359,,
4360,,
4361,,
4362,,
4363,,
4364,,
4365,,
4366,,
4367,,
4368,,
4369,,
4370,,
4371,,
4372,,
4373,,
4374,,
4375,,
4376,,
4377,,
4378,,
4379,,
4380,,
4381,,
4382,,
4383,,
4385,,
4386,,
4387,,
4389,,
4391,,
4393,,
4394,,
4396,,
4397,,
4398,,
4399,,
4400,,
4401,,
4402,,
4403,,
4406,,
4407,,
4408,,
4409,,
4410,,
4412,,
4413,,
4414,,
4416,,
4417,,
4419,,
4420,,
4421,,
4422,,
4424,,
4426,,
4427,,
4428,,
4429,,
4430,,
4431,,
4432,,
4433,,
4434,,
4435,,
4436,,
4437,,
4438,,
4439,,
4440,,
4442,,
4443,,
4444,,
4445,,
4446,,
4447,,
4449,,
4450,,
4451,,
4452,,
4453,,
4456,,
4457,,
4460,,
4461,,
4463,,
4465,,
4466,,
4467,,
4469,,
4470,,
4471,,
4472,,
4473,,
4474,,
4475,,
4476,,
4478,,
4479,,
4482,,
4484,,
4485,,
4486,,
4487,,
4488,,
4489,,
4490,,
4492,,
4493,,
4495,,
4496,,
4498,,
4499,,
4501,,
4502,,
4504,,
4505,,
4506,,
4507,,
4508,,
4509,,
4510,,
4511,,
4512,,
4514,,
4515,,
4516,,
4517,,
4518,,
4519,,
4520,,
4521,,
4522,,
4524,,
4525,,
4529,,
4531,,
4533,,
4534,,
4538,,
4539,,
4541,,
4542,,
4544,,
4546,,
4547,,
4548,,
4549,,
4550,,
4556,,
4558,,
4559,,
4561,,
4563,,
4564,,
4566,,
4568,,
4569,,
4570,,
4571,,
4572,,
4573,,
4576,,
4580,,
4581,,
4582,,
4583,,
4584,,
4585,,
4586,,
4587,,
4588,,
4589,,
4590,,
4591,,
4592,,
4593,,
4595,,
4596,,
4597,,
4598,,
4599,,
4601,,
4602,,
4604,,
4605,,
4606,,
4607,,
4608,,
4609,,
4611,,
4612,,
4613,,
4614,,
4615,,
4616,,
4617,,
4618,,
4619,,
4621,,
4622,,
4624,,
4625,,
4626,,
4627,,
4628,,
4633,,
4634,,
4635,,
4636,,
4637,,
4640,,
4641,,
4642,,
4643,,
4645,,
4646,,
4647,,
4650,,
4651,,
4652,,
4653,,
4654,,
4655,,
4656,,
4657,,
4659,,
4660,,
4661,,
4662,,
4665,,
4666,,
4667,,
4668,,
4670,,
4671,,
4672,,
4674,,
4675,,
4676,,
4677,,
4678,,
4679,,
4680,,
4682,,
4683,,
4684,,
4685,,
4686,,
4687,,
4688,,
4689,,
4692,,
4693,,
4694,,
4695,,
4696,,
4697,,
4698,,
4699,,
4700,,
4701,,
4702,,
4703,,
4704,,
4705,,
4706,,
4708,,
4711,,
4712,,
4713,,
4714,,
4715,,
4716,,
4717,,
4718,,
4719,,
4720,,
4721,,
4722,,
4723,,
4724,,
4725,,
4727,,
4728,,
4729,,
4731,,
4732,,
4733,,
4740,,
4741,,
4742,,
4744,,
4747,,
4750,,
4752,,
4753,,
4754,,
4755,,
4756,,
4757,,
4758,,
4760,,
4762,,
4767,,
4769,,
4771,,
4772,,
4773,,
4776,,
4777,,
4778,,
4779,,
4780,,
4782,,
4783,,
4784,,
4787,,
4788,,
4789,,
4791,,
4793,,
4795,,
4797,,
4799,,
4800,,
4801,,
4802,,
4803,,
4804,,
4806,,
4809,,
4811,,
4815,,
4816,,
4817,,
4818,,
4819,,
4822,,
4823,,
4824,,
4825,,
4828,,
4829,,
4832,,
4834,,
4835,,
4836,,
4837,,
4838,,
4840,,
4841,,
4842,,
4843,,
4845,,
4846,,
4847,,
4848,,
4849,,
4850,,
4851,,
4852,,
4853,,
4854,,
4855,,
4858,,
4859,,
4860,,
4862,,
4863,,
4864,,
4865,,
4866,,
4867,,
4868,,
4870,,
4872,,
4875,,
4876,,
4877,,
4878,,
4879,,
4880,,
4881,,
4882,,
4883,,
4884,,
4885,,
4886,,
4887,,
4888,,
4889,,
4890,,
4891,,
4892,,
4893,,
4894,,
4895,,
4896,,
4897,,
4898,,
4899,,
4900,,
4901,,
4902,,
4903,,
4904,,
4905,,
4906,,
4907,,
4908,,
4909,,
4912,,
4913,,
4916,,
4917,,
4919,,
4921,,
4922,,
4923,,
4924,,
4925,,
4926,,
4927,,
4928,,
4929,,
4930,,
4931,,
4932,,
4933,,
4934,,
4935,,
4936,,
4937,,
4938,,
4940,,
4941,,
4942,,
4943,,
4944,,
4946,,
4947,,
4948,,
4949,,
4952,,
4953,,
4954,,
4955,,
4956,,
4957,,
4958,,
4960,,
4961,,
4962,,
4963,,
4965,,
4966,,
4967,,
4968,,
4969,,
4971,,
4973,,
4974,,
4975,,
4976,,
4978,,
4980,,
4981,,
4982,,
4983,,
4984,,
4986,,
4987,,
4988,,
4989,,
4990,,
4991,,
4992,,
4994,,
4995,,
4996,,
4998,,
4999,,
5000,,
5002,,
5003,,
5004,,
5006,,
5010,,
5011,,
5012,,
5013,,
5014,,
5015,,
5016,,
5017,,
5018,,
5021,,
5024,,
5025,,
5026,,
5028,,
5029,,
5032,,
5033,,
5034,,
5035,,
5036,,
5037,,
5039,,
5040,,
5041,,
5042,,
5043,,
5044,,
5045,,
5046,,
5047,,
5048,,
5050,,
5051,,
5052,,
5053,,
5054,,
5055,,
5056,,
5057,,
5058,,
5059,,
5060,,
5061,,
5062,,
5063,,
5064,,
5065,,
5066,,
5067,,
5068,,
5069,,
5070,,
5071,,
5072,,
5073,,
5074,,
5075,,
5077,,
5078,,
5079,,
5080,,
5081,,
5082,,
5083,,
5084,,
5085,,
5086,,
5087,,
5088,,
5092,,
5094,,
5095,,
5096,,
5097,,
5098,,
5100,,
5101,,
5102,,
5103,,
5104,,
5105,,
5106,,
5107,,
5109,,
5110,,
5112,,
5113,,
5114,,
5116,,
5117,,
5118,,
5119,,
5120,,
5121,,
5123,,
5124,,
5125,,
5126,,
5127,,
5128,,
5130,,
5131,,
5133,,
5134,,
5137,,
5138,,
5139,,
5140,,
5141,,
5142,,
5143,,
5144,,
5145,,
5146,,
5147,,
5148,,
5149,,
5150,,
5152,,
5154,,
5155,,
5157,,
5158,,
5159,,
5160,,
5162,,
5163,,
5164,,
5166,,
5167,,
5168,,
5169,,
5171,,
5172,,
5175,,
5176,,
5177,,
5179,,
5180,,
5181,,
5182,,
5183,,
5185,,
5187,,
5188,,
5189,,
5190,,
5191,,
5192,,
5193,,
5194,,
5195,,
5196,,
5197,,
5198,,
5199,,
5202,,
5203,,
5204,,
5205,,
5206,,
5207,,
5208,,
5209,,
5210,,
5211,,
5212,,
5213,,
5214,,
5215,,
5216,,
5217,,
5218,,
5219,,
5220,,
5221,,
5222,,
5223,,
5224,,
5225,,
5226,,
5227,,
5228,,
5229,,
5230,,
5231,,
5232,,
5233,,
5234,,
5235,,
5236,,
5237,,
5238,,
5240,,
5241,,
5243,,
5244,,
5245,,
5246,,
5247,,
5248,,
5249,,
5250,,
5251,,
5252,,
5253,,
5254,,
5255,,
5256,,
5257,,
5258,,
5259,,
5260,,
5261,,
5262,,
5263,,
5264,,
5265,,
5268,,
5269,,
5270,,
5271,,
5272,,
5276,,
5277,,
5278,,
5279,,
5280,,
5281,,
5282,,
5283,,
5284,,
5286,,
5287,,
5288,,
5290,,
5291,,
5292,,
5293,,
5294,,
5297,,
5298,,
5299,,
5300,,
5301,,
5302,,
5303,,
5304,,
5305,,
5306,,
5310,,
5311,,
5312,,
5313,,
5315,,
5316,,
5317,,
5318,,
5319,,
5320,,
5321,,
5322,,
5324,,
5325,,
5326,,
5327,,
5328,,
5329,,
5330,,
5331,,
5332,,
5334,,
5335,,
5336,,
5337,,
5338,,
5339,,
5340,,
5342,,
5343,,
5345,,
5346,,
5348,,
5349,,
5350,,
5351,,
5352,,
5353,,
5354,,
5356,,
5357,,
5361,,
5362,,
5364,,
5365,,
5367,,
5368,,
5369,,
5370,,
5372,,
5373,,
5374,,
5375,,
5376,,
5377,,
5378,,
5381,,
5382,,
5383,,
5384,,
5385,,
5386,,
5387,,
5388,,
5389,,
5390,,
5392,,
5393,,
5394,,
5395,,
5397,,
5398,,
5399,,
5402,,
5403,,
5404,,
5405,,
5406,,
5407,,
5408,,
5409,,
5411,,
5412,,
5413,,
5414,,
5415,,
5416,,
5417,,
5418,,
5419,,
5420,,
5422,,
5423,,
5424,,
5425,,
5426,,
5427,,
5428,,
5429,,
5430,,
5431,,
5432,,
5433,,
5435,,
5436,,
5438,,
5441,,
5442,,
5443,,
5444,,
5445,,
5446,,
5447,,
5448,,
5449,,
5450,,
5451,,
5452,,
5453,,
5454,,
5455,,
5457,,
5458,,
5459,,
5460,,
5461,,
5463,,
5464,,
5466,,
5467,,
5469,,
5470,,
5471,,
5472,,
5473,,
5474,,
5475,,
5477,,
5478,,
5479,,
5480,,
5483,,
5484,,
5485,,
5486,,
5487,,
5488,,
5490,,
5491,,
5492,,
5493,,
5494,,
5495,,
5497,,
5498,,
5500,,
5501,,
5502,,
5503,,
5504,,
5505,,
5506,,
5507,,
5508,,
5509,,
5510,,
5511,,
5512,,
5513,,
5514,,
5517,,
5518,,
5519,,
5520,,
5521,,
5522,,
5523,,
5525,,
5526,,
5529,,
5530,,
5532,,
5533,,
5534,,
5535,,
5537,,
5540,,
5541,,
5542,,
5543,,
5544,,
5545,,
5547,,
5548,,
5549,,
5551,,
5552,,
5553,,
5555,,
5556,,
5557,,
5558,,
5559,,
5560,,
5561,,
5562,,
5563,,
5564,,
5565,,
5566,,
5567,,
5569,,
5570,,
5571,,
5572,,
5574,,
5575,,
5576,,
5578,,
5579,,
5581,,
5582,,
5583,,
5584,,
5587,,
5588,,
5589,,
5591,,
5592,,
5593,,
5594,,
5595,,
5596,,
5598,,
5599,,
5600,,
5602,,
5603,,
5604,,
5606,,
5608,,
5609,,
5610,,
5611,,
5612,,
5613,,
5614,,
5615,,
5616,,
5617,,
5618,,
5619,,
5620,,
5621,,
5622,,
5623,,
5624,,
5625,,
5626,,
5627,,
5628,,
5629,,
5630,,
5631,,
5632,,
5633,,
5634,,
5635,,
5636,,
5637,,
5638,,
5639,,
5640,,
5642,,
5644,,
5645,,
5646,,
5647,,
5648,,
5649,,
5650,,
5651,,
5652,,
5653,,
5654,,
5656,,
5659,,
5660,,
5661,,
5663,,
5664,,
5665,,
5666,,
5667,,
5668,,
5669,,
5670,,
5671,,
5672,,
5673,,
5674,,
5675,,
5676,,
5677,,
5678,,
5679,,
5680,,
5681,,
5682,,
5683,,
5684,,
5685,,
5686,,
5687,,
5688,,
5689,,
5690,,
5691,,
5692,,
5693,,
5694,,
5695,,
5697,,
5699,,
5700,,
5701,,
5702,,
5703,,
5704,,
5705,,
5706,,
5707,,
5708,,
5709,,
5710,,
5711,,
5712,,
5713,,
5714,,
5715,,
5716,,
5717,,
5719,,
5720,,
5721,,
5723,,
5724,,
5725,,
5726,,
5727,,
5728,,
5730,,
5731,,
5732,,
5733,,
5734,,
5735,,
5736,,
5737,,
5738,,
5739,,
5740,,
5741,,
5742,,
5743,,
5744,,
5745,,
5749,,
5750,,
5751,,
5752,,
5753,,
5754,,
5755,,
5756,,
5757,,
5758,,
5759,,
5760,,
5761,,
5762,,
5763,,
5764,,
5765,,
5766,,
5767,,
5768,,
5769,,
5770,,
5771,,
5772,,
5773,,
5774,,
5775,,
5777,,
5778,,
5779,,
5780,,
5781,,
5782,,
5783,,
5784,,
5786,,
5787,,
5788,,
5789,,
5790,,
5791,,
5792,,
5794,,
5795,,
5796,,
5797,,
5798,,
5799,,
5800,,
5801,,
5802,,
5803,,
5804,,
5805,,
5806,,
5807,,
5808,,
5809,,
5810,,
5812,,
5813,,
5814,,
5815,,
5817,,
5818,,
5820,,
5821,,
5822,,
5823,,
5824,,
5825,,
5826,,
5827,,
5828,,
5831,,
5832,,
5833,,
5835,,
5836,,
5837,,
5838,,
5839,,
5840,,
5841,,
5842,,
5844,,
5845,,
5846,,
5847,,
5848,,
5849,,
5850,,
5851,,
5852,,
5853,,
5854,,
5856,,
5857,,
5858,,
5859,,
5860,,
5861,,
5862,,
5863,,
5864,,
5865,,
5866,,
5867,,
5868,,
5870,,
5871,,
5872,,
5873,,
5875,,
5876,,
5877,,
5878,,
5879,,
5880,,
5881,,
5882,,
5883,,
5884,,
5885,,
5886,,
5888,,
5890,,
5891,,
5892,,
5897,,
5899,,
5900,,
5901,,
5902,,
5903,,
5904,,
5906,,
5909,,
5910,,
5911,,
5912,,
5913,,
5914,,
5915,,
5916,,
5917,,
5918,,
5919,,
5921,,
5923,,
5924,,
5926,,
5927,,
5928,,
5929,,
5930,,
5931,,
5932,,
5933,,
5934,,
5937,,
5938,,
5939,,
5940,,
5942,,
5943,,
5944,,
5945,,
5946,,
5947,,
5948,,
5949,,
5950,,
5951,,
5953,,
5955,,
5956,,
5958,,
5959,,
5960,,
5962,,
5964,,
5965,,
5966,,
5967,,
5969,,
5970,,
5971,,
5972,,
5975,,
5976,,
5977,,
5978,,
5980,,
5981,,
5982,,
5983,,
5986,,
5987,,
5988,,
5989,,
5990,,
5991,,
5995,,
5997,,
5998,,
5999,,
6000,,
6002,,
6003,,
6004,,
6005,,
6006,,
6007,,
6008,,
6009,,
6011,,
6012,,
6014,,
6015,,
6016,,
6017,,
6018,,
6019,,
6020,,
6021,,
6022,,
6023,,
6024,,
6025,,
6026,,
6027,,
6030,,
6031,,
6032,,
6034,,
6035,,
6036,,
6037,,
6038,,
6039,,
6042,,
6044,,
6045,,
6046,,
6047,,
6048,,
6049,,
6050,,
6052,,
6053,,
6054,,
6055,,
6056,,
6057,,
6059,,
6060,,
6061,,
6062,,
6063,,
6065,,
6066,,
6068,,
6070,,
6071,,
6072,,
6073,,
6074,,
6077,,
6078,,
6079,,
6080,,
6081,,
6082,,
6083,,
6084,,
6085,,
6086,,
6088,,
6089,,
6090,,
6091,,
6092,,
6093,,
6094,,
6095,,
6096,,
6097,,
6098,,
6099,,
6100,,
6102,,
6103,,
6104,,
6105,,
6106,,
6107,,
6108,,
6109,,
6110,,
6111,,
6112,,
6113,,
6114,,
6115,,
6116,,
6117,,
6118,,
6119,,
6121,,
6123,,
6124,,
6125,,
6126,,
6127,,
6128,,
6129,,
6130,,
6132,,
6133,,
6134,,
6135,,
6136,,
6138,,
6139,,
6140,,
6141,,
6142,,
6143,,
6144,,
6145,,
6146,,
6147,,
6148,,
6149,,
6150,,
6151,,
6152,,
6153,,
6154,,
6155,,
6156,,
6157,,
6158,,
6159,,
6160,,
6161,,
6162,,
6164,,
6166,,
6167,,
6168,,
6170,,
6171,,
6172,,
6174,,
6175,,
6176,,
6179,,
6181,,
6184,,
6185,,
6186,,
6187,,
6188,,
6189,,
6191,,
6192,,
6193,,
6194,,
6196,,
6197,,
6199,,
6200,,
6203,,
6205,,
6206,,
6207,,
6208,,
6209,,
6213,,
6214,,
6215,,
6216,,
6218,,
6220,,
6221,,
6223,,
6224,,
6226,,
6227,,
6228,,
6229,,
6231,,
6232,,
6234,,
6235,,
6236,,
6237,,
6239,,
6240,,
6241,,
6242,,
6244,,
6246,,
6247,,
6248,,
6249,,
6251,,
6252,,
6254,,
6255,,
6256,,
6257,,
6259,,
6261,,
6262,,
6263,,
6264,,
6267,,
6269,,
6271,,
6273,,
6278,,
6279,,
6280,,
6282,,
6283,,
6284,,
6285,,
6288,,
6290,,
6292,,
6293,,
6294,,
6295,,
6296,,
6297,,
6298,,
6299,,
6300,,
6301,,
6303,,
6305,,
6306,,
6307,,
6308,,
6309,,
6310,,
6311,,
6312,,
6313,,
6314,,
6315,,
6316,,
6317,,
6318,,
6319,,
6321,,
6322,,
6323,,
6324,,
6325,,
6326,,
6327,,
6328,,
6329,,
6330,,
6331,,
6332,,
6333,,
6334,,
6336,,
6337,,
6338,,
6339,,
6340,,
6341,,
6342,,
6343,,
6345,,
6346,,
6347,,
6348,,
6349,,
6350,,
6351,,
6352,,
6353,,
6354,,
6355,,
6356,,
6357,,
6358,,
6359,,
6361,,
6362,,
6363,,
6364,,
6365,,
6366,,
6367,,
6368,,
6370,,
6371,,
6372,,
6373,,
6374,,
6376,,
6377,,
6378,,
6379,,
6380,,
6381,,
6382,,
6383,,
6384,,
6385,,
6386,,
6388,,
6389,,
6390,,
6392,,
6393,,
6394,,
6395,,
6396,,
6397,,
6399,,
6401,,
6402,,
6403,,
6404,,
6405,,
6407,,
6409,,
6411,,
6412,,
6413,,
6414,,
6417,,
6418,,
6419,,
6420,,
6421,,
6422,,
6423,,
6424,,
6427,,
6428,,
6429,,
6431,,
6432,,
6433,,
6434,,
6435,,
6436,,
6437,,
6438,,
6439,,
6440,,
6442,,
6443,,
6444,,
6445,,
6446,,
6450,,
6452,,
6454,,
6457,,
6458,,
6459,,
6460,,
6461,,
6462,,
6463,,
6464,,
6465,,
6466,,
6469,,
6470,,
6471,,
6472,,
6473,,
6475,,
6477,,
6478,,
6480,,
6481,,
6483,,
6484,,
6485,,
6486,,
6488,,
6489,,
6490,,
6491,,
6493,,
6494,,
6495,,
6496,,
6497,,
6498,,
6499,,
6501,,
6503,,
6504,,
6505,,
6506,,
6507,,
6508,,
6509,,
6510,,
6511,,
6512,,
6513,,
6514,,
6516,,
6519,,
6520,,
6521,,
6522,,
6525,,
6526,,
6527,,
6528,,
6529,,
6530,,
6531,,
6533,,
6534,,
6535,,
6536,,
6537,,
6539,,
6540,,
6541,,
6542,,
6543,,
6544,,
6545,,
6546,,
6548,,
6550,,
6552,,
6554,,
6555,,
6557,,
6558,,
6559,,
6560,,
6561,,
6562,,
6563,,
6565,,
6566,,
6567,,
6568,,
6569,,
6570,,
6571,,
6572,,
6573,,
6574,,
6575,,
6576,,
6577,,
6579,,
6580,,
6581,,
6583,,
6584,,
6585,,
6586,,
6587,,
6588,,
6589,,
6590,,
6592,,
6593,,
6594,,
6597,,
6598,,
6599,,
6600,,
6601,,
6602,,
6603,,
6604,,
6605,,
6606,,
6607,,
6608,,
6609,,
6610,,
6611,,
6613,,
6614,,
6615,,
6616,,
6617,,
6618,,
6620,,
6621,,
6622,,
6623,,
6624,,
6625,,
6626,,
6628,,
6629,,
6631,,
6632,,
6633,,
6634,,
6635,,
6636,,
6638,,
6639,,
6641,,
6642,,
6643,,
6645,,
6648,,
6651,,
6652,,
6654,,
6658,,
6659,,
6660,,
6662,,
6663,,
6664,,
6666,,
6667,,
6670,,
6671,,
6672,,
6673,,
6674,,
6675,,
6676,,
6677,,
6678,,
6681,,
6682,,
6683,,
6684,,
6685,,
6686,,
6687,,
6688,,
6689,,
6690,,
6692,,
6693,,
6695,,
6696,,
6699,,
6700,,
6701,,
6702,,
6703,,
6704,,
6705,,
6707,,
6709,,
6710,,
6711,,
6712,,
6713,,
6715,,
6716,,
6717,,
6718,,
6719,,
6720,,
6721,,
6723,,
6725,,
6726,,
6727,,
6728,,
6729,,
6730,,
6731,,
6732,,
6733,,
6735,,
6736,,
6737,,
6738,,
6739,,
6740,,
6741,,
6742,,
6743,,
6744,,
6745,,
6747,,
6748,,
6749,,
6750,,
6751,,
6752,,
6754,,
6755,,
6756,,
6758,,
6759,,
6760,,
6761,,
6763,,
6764,,
6765,,
6767,,
6768,,
6770,,
6771,,
6772,,
6775,,
6776,,
6777,,
6778,,
6779,,
6780,,
6781,,
6782,,
6783,,
6784,,
6785,,
6786,,
6787,,
6788,,
6789,,
6790,,
6791,,
6793,,
6794,,
6795,,
6796,,
6797,,
6798,,
6799,,
6801,,
6802,,
6803,,
6805,,
6806,,
6807,,
6808,,
6809,,
6810,,
6811,,
6812,,
6813,,
6814,,
6815,,
6816,,
6817,,
6818,,
6820,,
6821,,
6823,,
6824,,
6827,,
6828,,
6829,,
6830,,
6831,,
6832,,
6834,,
6835,,
6837,,
6838,,
6839,,
6840,,
6841,,
6842,,
6843,,
6845,,
6846,,
6847,,
6848,,
6849,,
6851,,
6852,,
6853,,
6854,,
6855,,
6856,,
6857,,
6858,,
6860,,
6861,,
6862,,
6863,,
6864,,
6865,,
6866,,
6867,,
6868,,
6869,,
6870,,
6872,,
6873,,
6874,,
6875,,
6876,,
6877,,
6879,,
6880,,
6881,,
6882,,
6883,,
6884,,
6885,,
6886,,
6887,,
6888,,
6889,,
6890,,
6891,,
6893,,
6894,,
6896,,
6897,,
6898,,
6899,,
6900,,
6902,,
6903,,
6904,,
6905,,
6906,,
6907,,
6908,,
6909,,
6911,,
6912,,
6913,,
6915,,
6916,,
6917,,
6918,,
6919,,
6920,,
6921,,
6922,,
6923,,
6924,,
6925,,
6927,,
6928,,
6929,,
6930,,
6932,,
6934,,
6935,,
6937,,
6939,,
6940,,
6941,,
6943,,
6946,,
6947,,
6950,,
6952,,
6953,,
6954,,
6955,,
6956,,
6957,,
6960,,
6961,,
6962,,
6963,,
6964,,
6965,,
6966,,
6967,,
6968,,
6969,,
6971,,
6972,,
6974,,
6976,,
6977,,
6978,,
6979,,
6980,,
6981,,
6982,,
6984,,
6988,,
6989,,
6990,,
6991,,
6992,,
6994,,
6995,,
6996,,
6997,,
6999,,
7000,,
7001,,
7002,,
7003,,
7004,,
7005,,
7007,,
7008,,
7009,,
7010,,
7012,,
7013,,
7015,,
7016,,
7017,,
7018,,
7019,,
7021,,
7023,,
7024,,
7026,,
7027,,
7028,,
7029,,
7030,,
7032,,
7033,,
7034,,
7036,,
7039,,
7040,,
7041,,
7042,,
7043,,
7044,,
7045,,
7046,,
7047,,
7048,,
7049,,
7050,,
7051,,
7052,,
7053,,
7054,,
7055,,
7056,,
7058,,
7059,,
7060,,
7061,,
7062,,
7063,,
7065,,
7066,,
7067,,
7068,,
7069,,
7070,,
7071,,
7072,,
7073,,
7074,,
7075,,
7077,,
7078,,
7079,,
7080,,
7081,,
7082,,
7083,,
7084,,
7085,,
7086,,
7087,,
7088,,
7089,,
7090,,
7091,,
7092,,
7093,,
7094,,
7095,,
7096,,
7097,,
7098,,
7099,,
7100,,
7101,,
7102,,
7103,,
7104,,
7105,,
7107,,
7108,,
7109,,
7110,,
7111,,
7113,,
7114,,
7116,,
7117,,
7119,,
7120,,
7121,,
7123,,
7124,,
7125,,
7126,,
7127,,
7128,,
7129,,
7131,,
7132,,
7133,,
7134,,
7135,,
7136,,
7137,,
7138,,
7139,,
7140,,
7141,,
7142,,
7143,,
7144,,
7145,,
7147,,
7148,,
7149,,
7151,,
7152,,
7153,,
7154,,
7158,,
7159,,
7160,,
7161,,
7162,,
7163,,
7164,,
7165,,
7166,,
7167,,
7169,,
7170,,
7171,,
7174,,
7175,,
7176,,
7177,,
7178,,
7180,,
7181,,
7182,,
7183,,
7184,,
7185,,
7186,,
7187,,
7188,,
7189,,
7190,,
7191,,
7192,,
7193,,
7194,,
7195,,
7196,,
7197,,
7198,,
7199,,
7200,,
7201,,
7202,,
7203,,
7205,,
7206,,
7208,,
7209,,
7210,,
7212,,
7213,,
7214,,
7215,,
7216,,
7217,,
7218,,
7219,,
7220,,
7221,,
7222,,
7223,,
7224,,
7225,,
7226,,
7227,,
7228,,
7229,,
7230,,
7232,,
7233,,
7234,,
7235,,
7236,,
7238,,
7239,,
7240,,
7241,,
7242,,
7243,,
7244,,
7245,,
7246,,
7247,,
7248,,
7249,,
7250,,
7251,,
7254,,
7255,,
7256,,
7258,,
7259,,
7260,,
7261,,
7262,,
7263,,
7264,,
7265,,
7266,,
7267,,
7268,,
7269,,
7270,,
7271,,
7272,,
7273,,
7274,,
7275,,
7279,,
7280,,
7281,,
7283,,
7284,,
7285,,
7286,,
7287,,
7288,,
7289,,
7290,,
7291,,
7292,,
7293,,
7294,,
7295,,
7296,,
7297,,
7298,,
7300,,
7301,,
7302,,
7303,,
7304,,
7305,,
7306,,
7308,,
7309,,
7310,,
7311,,
7313,,
7314,,
7315,,
7319,,
7323,,
7324,,
7325,,
7326,,
7327,,
7328,,
7329,,
7331,,
7332,,
7333,,
7334,,
7335,,
7336,,
7337,,
7338,,
7340,,
7341,,
7343,,
7344,,
7345,,
7346,,
7347,,
7348,,
7349,,
7350,,
7351,,
7352,,
7354,,
7355,,
7356,,
7357,,
7358,,
7359,,
7360,,
7361,,
7362,,
7364,,
7365,,
7366,,
7367,,
7369,,
7371,,
7372,,
7374,,
7375,,
7376,,
7377,,
7379,,
7380,,
7383,,
7384,,
7386,,
7387,,
7388,,
7389,,
7390,,
7391,,
7392,,
7393,,
7394,,
7396,,
7398,,
7399,,
7400,,
7401,,
7402,,
7403,,
7404,,
7405,,
7406,,
7407,,
7408,,
7409,,
7410,,
7414,,
7415,,
7417,,
7418,,
7419,,
7420,,
7421,,
7422,,
7423,,
7424,,
7426,,
7427,,
7429,,
7431,,
7432,,
7433,,
7434,,
7435,,
7436,,
7437,,
7438,,
7440,,
7441,,
7443,,
7444,,
7445,,
7446,,
7447,,
7449,,
7450,,
7451,,
7452,,
7453,,
7454,,
7457,,
7458,,
7460,,
7462,,
7463,,
7465,,
7466,,
7467,,
7468,,
7469,,
7470,,
7471,,
7473,,
7474,,
7478,,
7480,,
7481,,
7482,,
7484,,
7485,,
7486,,
7488,,
7489,,
7490,,
7491,,
7492,,
7493,,
7494,,
7495,,
7498,,
7500,,
7502,,
7504,,
7505,,
7506,,
7507,,
7508,,
7510,,
7511,,
7512,,
7514,,
7515,,
7516,,
7517,,
7519,,
7521,,
7522,,
7523,,
7524,,
7525,,
7526,,
7527,,
7528,,
7531,,
7532,,
7533,,
7534,,
7535,,
7536,,
7539,,
7541,,
7542,,
7543,,
7544,,
7545,,
7546,,
7548,,
7549,,
7551,,
7552,,
7553,,
7554,,
7555,,
7556,,
7557,,
7559,,
7560,,
7561,,
7563,,
7566,,
7567,,
7568,,
7570,,
7572,,
7575,,
7576,,
7577,,
7578,,
7580,,
7582,,
7583,,
7584,,
7585,,
7587,,
7588,,
7589,,
7590,,
7591,,
7592,,
7593,,
7594,,
7596,,
7597,,
7598,,
7600,,
7601,,
7602,,
7603,,
7606,,
7608,,
7609,,
7610,,
7611,,
7612,,
7614,,
7616,,
7617,,
7620,,
7623,,
7624,,
7625,,
7626,,
7627,,
7628,,
7629,,
7630,,
7631,,
7632,,
7633,,
7634,,
7635,,
7636,,
7637,,
7638,,
7639,,
7640,,
7641,,
7642,,
7643,,
7644,,
7645,,
7646,,
7648,,
7649,,
7650,,
7651,,
7652,,
7656,,
7657,,
7658,,
7659,,
7660,,
7662,,
7663,,
7664,,
7665,,
7666,,
7667,,
7668,,
7669,,
7670,,
7672,,
7674,,
7675,,
7676,,
7680,,
7681,,
7682,,
7683,,
7684,,
7686,,
7689,,
7690,,
7691,,
7692,,
7693,,
7696,,
7699,,
7700,,
7701,,
7702,,
7704,,
7705,,
7706,,
7708,,
7709,,
7710,,
7711,,
7712,,
7713,,
7714,,
7715,,
7716,,
7718,,
7719,,
7722,,
7723,,
7724,,
7725,,
7726,,
7727,,
7728,,
7729,,
7731,,
7732,,
7733,,
7734,,
7736,,
7737,,
7741,,
7744,,
7746,,
7751,,
7752,,
7753,,
7755,,
7756,,
7757,,
7758,,
7759,,
7760,,
7761,,
7762,,
7763,,
7765,,
7767,,
7769,,
7770,,
7772,,
7773,,
7775,,
7776,,
7777,,
7778,,
7779,,
7780,,
7781,,
7785,,
7786,,
7787,,
7788,,
7790,,
7792,,
7794,,
7798,,
7799,,
7802,,
7803,,
7804,,
7805,,
7806,,
7807,,
7809,,
7810,,
7813,,
7814,,
7815,,
7816,,
7817,,
7820,,
7821,,
7823,,
7824,,
7825,,
7826,,
7827,,
7828,,
7830,,
7831,,
7832,,
7833,,
7834,,
7835,,
7837,,
7838,,
7841,,
7842,,
7843,,
7844,,
7845,,
7846,,
7847,,
7849,,
7850,,
7852,,
7853,,
7859,,
7860,,
7862,,
7863,,
7864,,
7865,,
7866,,
7868,,
7869,,
7871,,
7872,,
7873,,
7875,,
7876,,
7878,,
7879,,
7880,,
7881,,
7883,,
7884,,
7885,,
7886,,
7887,,
7890,,
7891,,
7892,,
7893,,
7894,,
7895,,
7896,,
7897,,
7898,,
7899,,
7900,,
7901,,
7903,,
7904,,
7905,,
7906,,
7907,,
7908,,
7909,,
7910,,
7911,,
7913,,
7914,,
7916,,
7917,,
7918,,
7919,,
7920,,
7921,,
7923,,
7924,,
7925,,
7926,,
7927,,
7928,,
7929,,
7930,,
7931,,
7932,,
7933,,
7934,,
7935,,
7936,,
7937,,
7938,,
7939,,
7940,,
7941,,
7942,,
7943,,
7944,,
7945,,
7946,,
7947,,
7948,,
7949,,
7950,,
7953,,
7954,,
7955,,
7957,,
7958,,
7959,,
7960,,
7961,,
7963,,
7965,,
7966,,
7967,,
7968,,
7969,,
7970,,
7972,,
7973,,
7974,,
7975,,
7976,,
7979,,
7980,,
7982,,
7983,,
7984,,
7985,,
7986,,
7988,,
7989,,
7990,,
7993,,
7995,,
7996,,
7997,,
7998,,
7999,,
8000,,
8002,,
8004,,
8005,,
8006,,
8007,,
8008,,
8009,,
8011,,
8013,,
8014,,
8015,,
8016,,
8017,,
8018,,
8020,,
8021,,
8022,,
8023,,
8024,,
8025,,
8026,,
8027,,
8029,,
8030,,
8032,,
8033,,
8034,,
8035,,
8038,,
8040,,
8041,,
8042,,
8043,,
8044,,
8046,,
8047,,
8048,,
8049,,
8051,,
8052,,
8054,,
8055,,
8057,,
8059,,
8061,,
8062,,
8063,,
8064,,
8065,,
8066,,
8067,,
8068,,
8070,,
8072,,
8073,,
8074,,
8075,,
8076,,
8077,,
8079,,
8080,,
8081,,
8083,,
8084,,
8086,,
8088,,
8089,,
8090,,
8091,,
8092,,
8093,,
8095,,
8096,,
8097,,
8098,,
8099,,
8100,,
8101,,
8102,,
8103,,
8104,,
8106,,
8107,,
8110,,
8111,,
8113,,
8114,,
8115,,
8116,,
8117,,
8118,,
8119,,
8120,,
8121,,
8122,,
8123,,
8125,,
8126,,
8128,,
8129,,
8130,,
8131,,
8132,,
8133,,
8134,,
8135,,
8138,,
8139,,
8140,,
8141,,
8142,,
8143,,
8144,,
8147,,
8148,,
8149,,
8151,,
8152,,
8155,,
8156,,
8157,,
8159,,
8160,,
8161,,
8163,,
8164,,
8167,,
8168,,
8169,,
8170,,
8171,,
8173,,
8174,,
8175,,
8176,,
8177,,
8178,,
8179,,
8180,,
8181,,
8182,,
8183,,
8184,,
8186,,
8188,,
8189,,
8190,,
8191,,
8192,,
8193,,
8194,,
8195,,
8196,,
8197,,
8198,,
8200,,
8202,,
8203,,
8205,,
8206,,
8207,,
8208,,
8209,,
8210,,
8211,,
8212,,
8213,,
8214,,
8215,,
8216,,
8219,,
8221,,
8222,,
8223,,
8224,,
8225,,
8226,,
8227,,
8228,,
8230,,
8231,,
8232,,
8233,,
8234,,
8236,,
8237,,
8238,,
8240,,
8242,,
8243,,
8244,,
8245,,
8247,,
8248,,
8249,,
8250,,
8251,,
8252,,
8253,,
8254,,
8255,,
8256,,
8257,,
8258,,
8259,,
8260,,
8262,,
8263,,
8264,,
8265,,
8266,,
8268,,
8269,,
8270,,
8272,,
8273,,
8274,,
8275,,
8276,,
8277,,
8279,,
8280,,
8281,,
8282,,
8283,,
8284,,
8285,,
8286,,
8287,,
8288,,
8289,,
8290,,
8291,,
8292,,
8293,,
8294,,
8296,,
8297,,
8298,,
8299,,
8300,,
8301,,
8302,,
8304,,
8305,,
8306,,
8307,,
8308,,
8309,,
8310,,
8311,,
8312,,
8313,,
8315,,
8316,,
8318,,
8319,,
8320,,
8321,,
8322,,
8323,,
8325,,
8326,,
8328,,
8329,,
8330,,
8331,,
8332,,
8333,,
8334,,
8335,,
8336,,
8337,,
8339,,
8340,,
8341,,
8342,,
8343,,
8344,,
8346,,
8348,,
8349,,
8350,,
8352,,
8353,,
8354,,
8355,,
8356,,
8357,,
8359,,
8360,,
8361,,
8362,,
8364,,
8366,,
8367,,
8370,,
8371,,
8372,,
8373,,
8374,,
8375,,
8376,,
8377,,
8378,,
8379,,
8380,,
8381,,
8382,,
8383,,
8384,,
8387,,
8388,,
8390,,
8391,,
8392,,
8393,,
8394,,
8395,,
8396,,
8397,,
8401,,
8402,,
8404,,
8405,,
8407,,
8408,,
8409,,
8410,,
8411,,
8412,,
8413,,
8414,,
8415,,
8417,,
8418,,
8419,,
8420,,
8421,,
8422,,
8424,,
8425,,
8426,,
8427,,
8428,,
8429,,
8430,,
8431,,
8432,,
8433,,
8434,,
8435,,
8436,,
8437,,
8438,,
8439,,
8441,,
8442,,
8443,,
8445,,
8447,,
8448,,
8449,,
8450,,
8451,,
8452,,
8453,,
8454,,
8455,,
8456,,
8457,,
8458,,
8459,,
8462,,
8463,,
8464,,
8465,,
8466,,
8467,,
8468,,
8470,,
8472,,
8473,,
8474,,
8475,,
8476,,
8477,,
8479,,
8480,,
8482,,
8483,,
8484,,
8485,,
8487,,
8488,,
8489,,
8490,,
8491,,
8493,,
8494,,
8495,,
8496,,
8497,,
8498,,
8499,,
8500,,
8502,,
8503,,
8504,,
8505,,
8506,,
8507,,
8508,,
8509,,
8510,,
8511,,
8512,,
8513,,
8514,,
8515,,
8516,,
8517,,
8518,,
8520,,
8521,,
8522,,
8523,,
8524,,
8525,,
8526,,
8527,,
8530,,
8531,,
8532,,
8533,,
8534,,
8535,,
8536,,
8538,,
8540,,
8542,,
8544,,
8545,,
8546,,
8547,,
8548,,
8549,,
8550,,
8551,,
8552,,
8553,,
8554,,
8555,,
8557,,
8558,,
8559,,
8560,,
8561,,
8562,,
8563,,
8564,,
8566,,
8568,,
8569,,
8570,,
8571,,
8572,,
8573,,
8574,,
8575,,
8576,,
8577,,
8578,,
8579,,
8580,,
8581,,
8582,,
8583,,
8584,,
8585,,
8587,,
8589,,
8591,,
8592,,
8593,,
8594,,
8597,,
8598,,
8599,,
8600,,
8601,,
8602,,
8603,,
8604,,
8605,,
8606,,
8607,,
8608,,
8609,,
8610,,
8611,,
8612,,
8613,,
8614,,
8615,,
8616,,
8617,,
8618,,
8619,,
8620,,
8621,,
8622,,
8625,,
8626,,
8628,,
8629,,
8630,,
8631,,
8633,,
8635,,
8636,,
8637,,
8638,,
8639,,
8640,,
8641,,
8642,,
8643,,
8644,,
8645,,
8646,,
8647,,
8648,,
8649,,
8651,,
8652,,
8653,,
8654,,
8655,,
8656,,
8657,,
8658,,
8659,,
8661,,
8662,,
8663,,
8664,,
8665,,
8666,,
8667,,
8668,,
8669,,
8670,,
8671,,
8672,,
8673,,
8674,,
8677,,
8678,,
8680,,
8681,,
8682,,
8683,,
8684,,
8687,,
8688,,
8689,,
8690,,
8691,,
8692,,
8693,,
8694,,
8695,,
8696,,
8697,,
8698,,
8699,,
8700,,
8701,,
8702,,
8703,,
8706,,
8707,,
8708,,
8709,,
8710,,
8713,,
8716,,
8717,,
8718,,
8719,,
8720,,
8721,,
8723,,
8724,,
8725,,
8726,,
8727,,
8729,,
8730,,
8731,,
8732,,
8733,,
8735,,
8736,,
8737,,
8738,,
8739,,
8741,,
8742,,
8743,,
8744,,
8745,,
8746,,
8747,,
8749,,
8750,,
8751,,
8752,,
8753,,
8754,,
8755,,
8756,,
8757,,
8758,,
8759,,
8760,,
8761,,
8762,,
8763,,
8764,,
8765,,
8766,,
8769,,
8770,,
8771,,
8772,,
8773,,
8774,,
8775,,
8776,,
8777,,
8779,,
8780,,
8781,,
8782,,
8783,,
8784,,
8785,,
8786,,
8787,,
8788,,
8789,,
8790,,
8791,,
8792,,
8793,,
8794,,
8795,,
8796,,
8797,,
8798,,
8801,,
8802,,
8803,,
8804,,
8805,,
8806,,
8808,,
8809,,
8811,,
8813,,
8814,,
8815,,
8817,,
8818,,
8819,,
8820,,
8821,,
8823,,
8824,,
8825,,
8827,,
8828,,
8829,,
8832,,
8834,,
8835,,
8836,,
8837,,
8840,,
8841,,
8842,,
8843,,
8845,,
8846,,
8847,,
8850,,
8851,,
8852,,
8853,,
8855,,
8857,,
8858,,
8860,,
8861,,
8863,,
8867,,
8868,,
8869,,
8870,,
8871,,
8872,,
8873,,
8874,,
8876,,
8877,,
8878,,
8879,,
8880,,
8881,,
8882,,
8883,,
8884,,
8885,,
8886,,
8887,,
8889,,
8890,,
8891,,
8892,,
8893,,
8894,,
8896,,
8897,,
8898,,
8901,,
8904,,
8905,,
8907,,
8909,,
8910,,
8914,,
8915,,
8916,,
8917,,
8918,,
8919,,
8920,,
8921,,
8922,,
8923,,
8924,,
8927,,
8928,,
8929,,
8930,,
8932,,
8934,,
8935,,
8938,,
8939,,
8940,,
8941,,
8942,,
8944,,
8945,,
8946,,
8947,,
8949,,
8951,,
8953,,
8954,,
8956,,
8959,,
8960,,
8961,,
8963,,
8966,,
8967,,
8971,,
8973,,
8974,,
8977,,
8978,,
8979,,
8980,,
8981,,
8982,,
8983,,
8984,,
8985,,
8987,,
8988,,
8990,,
8991,,
8992,,
8993,,
8995,,
8996,,
8997,,
8998,,
9001,,
9002,,
9003,,
9005,,
9006,,
9007,,
9008,,
9009,,
9010,,
9012,,
9014,,
9015,,
9016,,
9017,,
9019,,
9021,,
9022,,
9023,,
9024,,
9025,,
9026,,
9027,,
9029,,
9030,,
9031,,
9033,,
9034,,
9035,,
9036,,
9037,,
9038,,
9039,,
9040,,
9041,,
9042,,
9044,,
9045,,
9046,,
9047,,
9048,,
9049,,
9051,,
9052,,
9053,,
9054,,
9055,,
9056,,
9057,,
9058,,
9059,,
9060,,
9062,,
9063,,
9064,,
9065,,
9066,,
9068,,
9069,,
9071,,
9072,,
9076,,
9077,,
9078,,
9079,,
9080,,
9081,,
9082,,
9083,,
9084,,
9085,,
9086,,
9087,,
9088,,
9089,,
9090,,
9091,,
9092,,
9093,,
9094,,
9095,,
9096,,
9097,,
9098,,
9100,,
9101,,
9102,,
9103,,
9104,,
9105,,
9106,,
9109,,
9110,,
9111,,
9112,,
9113,,
9114,,
9115,,
9116,,
9117,,
9118,,
9119,,
9120,,
9122,,
9123,,
9124,,
9125,,
9126,,
9127,,
9128,,
9129,,
9130,,
9131,,
9132,,
9133,,
9134,,
9135,,
9136,,
9137,,
9138,,
9140,,
9141,,
9144,,
9145,,
9146,,
9147,,
9148,,
9152,,
9154,,
9156,,
9157,,
9158,,
9159,,
9160,,
9161,,
9163,,
9164,,
9165,,
9166,,
9171,,
9172,,
9173,,
9175,,
9176,,
9177,,
9178,,
9179,,
9180,,
9181,,
9182,,
9183,,
9191,,
9193,,
9195,,
9196,,
9197,,
9198,,
9199,,
9200,,
9203,,
9204,,
9206,,
9209,,
9212,,
9213,,
9214,,
9216,,
9217,,
9218,,
9219,,
9220,,
9222,,
9223,,
9224,,
9226,,
9228,,
9229,,
9230,,
9232,,
9233,,
9234,,
9235,,
9236,,
9237,,
9238,,
9239,,
9240,,
9241,,
9243,,
9244,,
9247,,
9248,,
9249,,
9250,,
9251,,
9254,,
9255,,
9256,,
9257,,
9261,,
9262,,
9263,,
9265,,
9266,,
9267,,
9268,,
9269,,
9270,,
9272,,
9273,,
9274,,
9275,,
9276,,
9277,,
9279,,
9280,,
9282,,
9283,,
9286,,
9287,,
9290,,
9291,,
9292,,
9293,,
9294,,
9295,,
9296,,
9298,,
9299,,
9300,,
9302,,
9303,,
9305,,
9307,,
9308,,
9310,,
9311,,
9313,,
9315,,
9316,,
9318,,
9320,,
9322,,
9323,,
9324,,
9326,,
9328,,
9329,,
9330,,
9331,,
9332,,
9333,,
9334,,
9335,,
9337,,
9338,,
9339,,
9340,,
9341,,
9342,,
9343,,
9344,,
9345,,
9346,,
9347,,
9348,,
9349,,
9350,,
9351,,
9353,,
9354,,
9356,,
9358,,
9359,,
9360,,
9361,,
9362,,
9363,,
9364,,
9365,,
9366,,
9367,,
9368,,
9370,,
9371,,
9372,,
9373,,
9374,,
9375,,
9377,,
9378,,
9379,,
9380,,
9381,,
9383,,
9386,,
9387,,
9389,,
9390,,
9392,,
9393,,
9396,,
9397,,
9398,,
9399,,
9401,,
9403,,
9405,,
9406,,
9407,,
9408,,
9409,,
9411,,
9413,,
9415,,
9416,,
9417,,
9418,,
9420,,
9421,,
9423,,
9424,,
9425,,
9426,,
9427,,
9428,,
9429,,
9430,,
9431,,
9432,,
9433,,
9437,,
9438,,
9439,,
9442,,
9443,,
9444,,
9445,,
9446,,
9447,,
9448,,
9449,,
9451,,
9452,,
9454,,
9455,,
9456,,
9457,,
9458,,
9459,,
9460,,
9461,,
9462,,
9464,,
9465,,
9466,,
9467,,
9468,,
9471,,
9473,,
9475,,
9476,,
9477,,
9478,,
9479,,
9480,,
9481,,
9483,,
9484,,
9485,,
9486,,
9487,,
9488,,
9489,,
9490,,
9492,,
9494,,
9495,,
9497,,
9501,,
9502,,
9503,,
9504,,
9505,,
9506,,
9507,,
9508,,
9509,,
9511,,
9512,,
9513,,
9514,,
9515,,
9516,,
9518,,
9519,,
9520,,
9521,,
9522,,
9523,,
9524,,
9525,,
9526,,
9527,,
9528,,
9529,,
9530,,
9531,,
9532,,
9533,,
9534,,
9535,,
9536,,
9537,,
9539,,
9540,,
9541,,
9542,,
9543,,
9544,,
9545,,
9546,,
9547,,
9550,,
9551,,
9552,,
9553,,
9554,,
9557,,
9560,,
9561,,
9562,,
9563,,
9566,,
9567,,
9570,,
9571,,
9572,,
9573,,
9574,,
9575,,
9576,,
9577,,
9578,,
9579,,
9580,,
9581,,
9582,,
9583,,
9584,,
9585,,
9586,,
9588,,
9589,,
9590,,
9591,,
9592,,
9593,,
9594,,
9595,,
9596,,
9597,,
9598,,
9599,,
9600,,
9601,,
9602,,
9603,,
9604,,
9605,,
9606,,
9607,,
9608,,
9609,,
9610,,
9612,,
9613,,
9614,,
9615,,
9616,,
9619,,
9620,,
9622,,
9623,,
9624,,
9625,,
9626,,
9627,,
9628,,
9629,,
9630,,
9632,,
9633,,
9634,,
9635,,
9636,,
9637,,
9638,,
9639,,
9641,,
9642,,
9643,,
9644,,
9645,,
9646,,
9647,,
9648,,
9649,,
9650,,
9652,,
9653,,
9654,,
9655,,
9656,,
9658,,
9659,,
9660,,
9661,,
9662,,
9664,,
9665,,
9666,,
9667,,
9668,,
9669,,
9670,,
9671,,
9672,,
9673,,
9674,,
9675,,
9676,,
9677,,
9679,,
9680,,
9681,,
9683,,
9685,,
9686,,
9687,,
9688,,
9689,,
9690,,
9691,,
9692,,
9694,,
9695,,
9696,,
9697,,
9699,,
9700,,
9701,,
9702,,
9703,,
9705,,
9706,,
9707,,
9708,,
9709,,
9710,,
9712,,
9713,,
9714,,
9715,,
9716,,
9717,,
9720,,
9721,,
9722,,
9723,,
9724,,
9725,,
9726,,
9728,,
9730,,
9731,,
9732,,
9733,,
9736,,
9737,,
9738,,
9739,,
9740,,
9741,,
9742,,
9743,,
9744,,
9745,,
9746,,
9747,,
9748,,
9751,,
9752,,
9753,,
9754,,
9755,,
9757,,
9758,,
9759,,
9760,,
9761,,
9762,,
9763,,
9764,,
9765,,
9766,,
9767,,
9769,,
9770,,
9771,,
9773,,
9774,,
9775,,
9776,,
9777,,
9780,,
9781,,
9782,,
9783,,
9785,,
9786,,
9787,,
9788,,
9789,,
9790,,
9792,,
9793,,
9796,,
9797,,
9799,,
9800,,
9801,,
9802,,
9803,,
9804,,
9806,,
9807,,
9808,,
9810,,
9811,,
9812,,
9813,,
9815,,
9816,,
9817,,
9818,,
9819,,
9821,,
9822,,
9823,,
9824,,
9826,,
9827,,
9828,,
9830,,
9831,,
9832,,
9833,,
9834,,
9835,,
9836,,
9837,,
9838,,
9840,,
9841,,
9842,,
9845,,
9846,,
9847,,
9848,,
9849,,
9850,,
9851,,
9852,,
9854,,
9855,,
9856,,
9857,,
9858,,
9861,,
9862,,
9863,,
9864,,
9865,,
9866,,
9867,,
9868,,
9869,,
9870,,
9871,,
9873,,
9875,,
9876,,
9877,,
9879,,
9881,,
9882,,
9883,,
9884,,
9885,,
9886,,
9887,,
9888,,
9889,,
9892,,
9893,,
9894,,
9897,,
9898,,
9899,,
9900,,
9901,,
9902,,
9903,,
9905,,
9906,,
9907,,
9908,,
9909,,
9910,,
9911,,
9912,,
9913,,
9914,,
9915,,
9916,,
9917,,
9918,,
9919,,
9920,,
9921,,
9922,,
9923,,
9924,,
9925,,
9927,,
9929,,
9930,,
9931,,
9932,,
9933,,
9934,,
9935,,
9936,,
9938,,
9939,,
9940,,
9941,,
9942,,
9943,,
9945,,
9946,,
9947,,
9948,,
9949,,
9950,,
9951,,
9952,,
9953,,
9954,,
9955,,
9956,,
9957,,
9958,,
9959,,
9960,,
9963,,
9964,,
9965,,
9966,,
9967,,
9968,,
9969,,
9970,,
9973,,
9974,,
9975,,
9976,,
9977,,
9978,,
9979,,
9980,,
9981,,
9982,,
9983,,
9985,,
9986,,
9987,,
9988,,
9990,,
9991,,
9993,,
9994,,
9995,,
9996,,
9997,,
9998,,
10000,,
10001,,
10002,,
10003,,
10004,,
10005,,
10007,,
10008,,
10009,,
10011,,
10013,,
10014,,
10015,,
10016,,
10017,,
10019,,
10020,,
10022,,
10023,,
10024,,
10025,,
10026,,
10027,,
10028,,
10029,,
10030,,
10032,,
10033,,
10034,,
10035,,
10036,,
10037,,
10038,,
10040,,
10042,,
10043,,
10044,,
10045,,
10046,,
10047,,
10049,,
10050,,
10051,,
10052,,
10053,,
10054,,
10055,,
10056,,
10057,,
10058,,
10059,,
10060,,
10063,,
10065,,
10066,,
10067,,
10070,,
10071,,
10072,,
10073,,
10074,,
10075,,
10076,,
10077,,
10078,,
10079,,
10080,,
10082,,
10083,,
10084,,
10085,,
10088,,
10089,,
10090,,
10091,,
10092,,
10093,,
10094,,
10095,,
10096,,
10098,,
10099,,
10101,,
10102,,
10103,,
10104,,
10105,,
10106,,
10107,,
10108,,
10109,,
10110,,
10111,,
10112,,
10113,,
10114,,
10115,,
10116,,
10118,,
10120,,
10121,,
10122,,
10123,,
10125,,
10126,,
10127,,
10128,,
10129,,
10130,,
10134,,
10135,,
10136,,
10138,,
10139,,
10140,,
10141,,
10142,,
10144,,
10146,,
10147,,
10148,,
10149,,
10150,,
10153,,
10154,,
10155,,
10156,,
10157,,
10158,,
10159,,
10160,,
10161,,
10162,,
10163,,
10164,,
10165,,
10166,,
10167,,
10168,,
10169,,
10170,,
10171,,
10172,,
10173,,
10175,,
10176,,
10177,,
10178,,
10179,,
10180,,
10181,,
10182,,
10183,,
10184,,
10185,,
10186,,
10187,,
10188,,
10189,,
10190,,
10191,,
10192,,
10193,,
10194,,
10195,,
10196,,
10197,,
10198,,
10199,,
10202,,
10203,,
10205,,
10206,,
10207,,
10208,,
10209,,
10210,,
10211,,
10212,,
10214,,
10215,,
10216,,
10217,,
10218,,
10219,,
10220,,
10221,,
10223,,
10224,,
10226,,
10227,,
10229,,
10230,,
10232,,
10233,,
10235,,
10236,,
10237,,
10238,,
10239,,
10240,,
10242,,
10243,,
10244,,
10245,,
10246,,
10247,,
10249,,
10250,,
10251,,
10252,,
10253,,
10254,,
10255,,
10256,,
10257,,
10258,,
10259,,
10260,,
10261,,
10262,,
10263,,
10265,,
10266,,
10267,,
10268,,
10269,,
10270,,
10271,,
10272,,
10273,,
10275,,
10276,,
10277,,
10278,,
10279,,
10280,,
10281,,
10283,,
10284,,
10285,,
10286,,
10287,,
10288,,
10289,,
10290,,
10292,,
10293,,
10296,,
10297,,
10298,,
10299,,
10301,,
10302,,
10304,,
10305,,
10306,,
10307,,
10308,,
10309,,
10310,,
10311,,
10312,,
10313,,
10314,,
10315,,
10316,,
10317,,
10318,,
10320,,
10321,,
10323,,
10324,,
10325,,
10326,,
10327,,
10328,,
10329,,
10330,,
10332,,
10333,,
10334,,
10335,,
10336,,
10337,,
10338,,
10339,,
10340,,
10341,,
10342,,
10343,,
10344,,
10345,,
10347,,
10348,,
10349,,
10350,,
10352,,
10353,,
10354,,
10355,,
10356,,
10357,,
10362,,
10363,,
10364,,
10365,,
10366,,
10368,,
10369,,
10370,,
10371,,
10372,,
10373,,
10374,,
10375,,
10376,,
10378,,
10379,,
10380,,
10383,,
10384,,
10385,,
10386,,
10387,,
10390,,
10392,,
10393,,
10394,,
10396,,
10397,,
10398,,
10399,,
10400,,
10402,,
10403,,
10404,,
10405,,
10406,,
10408,,
10409,,
10411,,
10414,,
10415,,
10416,,
10417,,
10418,,
10419,,
10420,,
10421,,
10423,,
10424,,
10427,,
10430,,
10431,,
10432,,
10433,,
10436,,
10437,,
10438,,
10439,,
10440,,
10441,,
10442,,
10443,,
10444,,
10446,,
10448,,
10450,,
10452,,
10453,,
10454,,
10455,,
10460,,
10461,,
10464,,
10465,,
10466,,
10467,,
10468,,
10469,,
10470,,
10471,,
10472,,
10473,,
10474,,
10475,,
10476,,
10477,,
10478,,
10479,,
10480,,
10481,,
10482,,
10483,,
10485,,
10486,,
10488,,
10489,,
10490,,
10491,,
10492,,
10493,,
10494,,
10495,,
10496,,
10498,,
10499,,
10500,,
10503,,
10504,,
10505,,
10506,,
10507,,
10508,,
10510,,
10512,,
10513,,
10514,,
10515,,
10516,,
10517,,
10519,,
10520,,
10521,,
10522,,
10523,,
10524,,
10525,,
10528,,
10529,,
10530,,
10532,,
10534,,
10535,,
10536,,
10538,,
10539,,
10540,,
10541,,
10543,,
10544,,
10545,,
10546,,
10547,,
10548,,
10549,,
10550,,
10551,,
10552,,
10554,,
10555,,
10557,,
10558,,
10559,,
10560,,
10561,,
10562,,
10563,,
10565,,
10566,,
10567,,
10568,,
10569,,
10570,,
10571,,
10572,,
10573,,
10575,,
10576,,
10578,,
10579,,
10580,,
10581,,
10582,,
10583,,
10584,,
10585,,
10586,,
10587,,
10588,,
10589,,
10590,,
10591,,
10592,,
10593,,
10594,,
10595,,
10596,,
10597,,
10598,,
10599,,
10600,,
10601,,
10603,,
10605,,
10607,,
10608,,
10609,,
10610,,
10611,,
10612,,
10613,,
10615,,
10616,,
10617,,
10619,,
10621,,
10622,,
10623,,
10624,,
10625,,
10628,,
10629,,
10630,,
10631,,
10632,,
10636,,
10637,,
10638,,
10639,,
10641,,
10642,,
10643,,
10645,,
10646,,
10647,,
10648,,
10649,,
10652,,
10653,,
10654,,
10655,,
10657,,
10658,,
10660,,
10661,,
10663,,
10664,,
10666,,
10667,,
10668,,
10669,,
10670,,
10671,,
10672,,
10673,,
10674,,
10676,,
10677,,
10679,,
10681,,
10682,,
10683,,
10684,,
10685,,
10687,,
10689,,
10692,,
10693,,
10694,,
10695,,
10696,,
10697,,
10699,,
10700,,
10701,,
10704,,
10706,,
10707,,
10708,,
10710,,
10711,,
10712,,
10714,,
10715,,
10716,,
10717,,
10718,,
10719,,
10721,,
10722,,
10723,,
10724,,
10725,,
10726,,
10727,,
10728,,
10729,,
10730,,
10731,,
10732,,
10733,,
10734,,
10735,,
10736,,
10737,,
10738,,
10739,,
10740,,
10741,,
10742,,
10743,,
10744,,
10746,,
10747,,
10748,,
10749,,
10750,,
10751,,
10753,,
10754,,
10755,,
10757,,
10758,,
10760,,
10761,,
10762,,
10763,,
10764,,
10765,,
10766,,
10769,,
10770,,
10771,,
10772,,
10773,,
10774,,
10775,,
10776,,
10777,,
10778,,
10779,,
10780,,
10781,,
10782,,
10783,,
10785,,
10786,,
10787,,
10788,,
10789,,
10790,,
10791,,
10792,,
10793,,
10794,,
10795,,
10797,,
10798,,
10799,,
10800,,
10801,,
10803,,
10804,,
10805,,
10808,,
10809,,
10810,,
10811,,
10812,,
10813,,
10818,,
10819,,
10820,,
10822,,
10823,,
10824,,
10825,,
10826,,
10827,,
10828,,
10829,,
10831,,
10832,,
10834,,
10836,,
10837,,
10838,,
10839,,
10840,,
10841,,
10842,,
10843,,
10845,,
10846,,
10848,,
10849,,
10850,,
10851,,
10853,,
10854,,
10855,,
10856,,
10857,,
10858,,
10859,,
10860,,
10861,,
10862,,
10864,,
10865,,
10866,,
10868,,
10870,,
10872,,
10873,,
10874,,
10875,,
10877,,
10878,,
10879,,
10880,,
10881,,
10882,,
10883,,
10884,,
10885,,
10887,,
10888,,
10889,,
10890,,
10891,,
10892,,
10894,,
10895,,
10896,,
10898,,
10899,,
10900,,
10901,,
10903,,
10904,,
10905,,
10906,,
10907,,
10908,,
10909,,
10910,,
10912,,
10913,,
10915,,
10916,,
10917,,
10918,,
10919,,
10920,,
10921,,
10922,,
10923,,
10924,,
10925,,
10926,,
10927,,
10928,,
10929,,
10930,,
10931,,
10932,,
10933,,
10934,,
10936,,
10937,,
10938,,
10939,,
10940,,
10941,,
10942,,
10943,,
10945,,
10946,,
10948,,
10949,,
10950,,
10951,,
10952,,
10953,,
10955,,
10956,,
10958,,
10959,,
10960,,
10961,,
10962,,
10963,,
10965,,
10966,,
10967,,
10968,,
10969,,
10970,,
10972,,
10973,,
10975,,
10976,,
10978,,
10979,,
10980,,
10981,,
10982,,
10983,,
10984,,
10986,,
10988,,
10989,,
10990,,
10992,,
10993,,
10994,,
10995,,
10996,,
10999,,
11001,,
11002,,
11003,,
11005,,
11008,,
11009,,
11010,,
11011,,
11012,,
11014,,
11015,,
11018,,
11019,,
11020,,
11021,,
11022,,
11023,,
11024,,
11026,,
11027,,
11029,,
11030,,
11031,,
11032,,
11034,,
11035,,
11036,,
11038,,
11039,,
11040,,
11041,,
11042,,
11043,,
11044,,
11045,,
11046,,
11047,,
11048,,
11049,,
11050,,
11051,,
11052,,
11053,,
11054,,
11055,,
11056,,
11057,,
11058,,
11059,,
11060,,
11061,,
11062,,
11063,,
11064,,
11065,,
11067,,
11068,,
11069,,
11070,,
11071,,
11072,,
11073,,
11074,,
11075,,
11076,,
11077,,
11078,,
11079,,
11080,,
11081,,
11082,,
11083,,
11086,,
11087,,
11088,,
11089,,
11090,,
11091,,
11092,,
11093,,
11094,,
11095,,
11097,,
11098,,
11099,,
11100,,
11101,,
11102,,
11104,,
11105,,
11107,,
11109,,
11110,,
11112,,
11113,,
11114,,
11115,,
11116,,
11117,,
11118,,
11119,,
11121,,
11123,,
11125,,
11126,,
11127,,
11128,,
11129,,
11130,,
11133,,
11134,,
11135,,
11138,,
11139,,
11140,,
11141,,
11142,,
11143,,
11144,,
11146,,
11147,,
11149,,
11150,,
11151,,
11152,,
11154,,
11155,,
11156,,
11157,,
11158,,
11159,,
11160,,
11162,,
11163,,
11164,,
11165,,
11166,,
11167,,
11168,,
11169,,
11170,,
11171,,
11172,,
11173,,
11174,,
11175,,
11176,,
11177,,
11178,,
11179,,
11180,,
11181,,
11182,,
11183,,
11185,,
11186,,
11187,,
11188,,
11189,,
11190,,
11191,,
11194,,
11195,,
11196,,
11198,,
11199,,
11200,,
11202,,
11203,,
11205,,
11206,,
11207,,
11210,,
11211,,
11212,,
11213,,
11214,,
11215,,
11216,,
11217,,
11218,,
11219,,
11220,,
11221,,
11223,,
11224,,
11225,,
11227,,
11229,,
11230,,
11231,,
11232,,
11233,,
11234,,
11236,,
11237,,
11239,,
11240,,
11241,,
11243,,
11245,,
11246,,
11247,,
11248,,
11249,,
11250,,
11251,,
11252,,
11253,,
11254,,
11255,,
11256,,
11257,,
11258,,
11260,,
11261,,
11262,,
11263,,
11266,,
11267,,
11268,,
11269,,
11271,,
11272,,
11273,,
11274,,
11275,,
11276,,
11277,,
11278,,
11279,,
11280,,
11281,,
11282,,
11283,,
11284,,
11286,,
11287,,
11288,,
11289,,
11290,,
11291,,
11292,,
11293,,
11294,,
11295,,
11296,,
11297,,
11298,,
11299,,
11300,,
11302,,
11303,,
11304,,
11305,,
11306,,
11307,,
11308,,
11309,,
11310,,
11311,,
11314,,
11315,,
11316,,
11318,,
11319,,
11320,,
11321,,
11322,,
11323,,
11324,,
11326,,
11327,,
11330,,
11331,,
11332,,
11333,,
11334,,
11337,,
11338,,
11339,,
11340,,
11341,,
11342,,
11343,,
11344,,
11345,,
11346,,
11347,,
11348,,
11350,,
11351,,
11352,,
11353,,
11355,,
11356,,
11358,,
11359,,
11360,,
11361,,
11362,,
11363,,
11366,,
11368,,
11370,,
11371,,
11372,,
11374,,
11375,,
11376,,
11378,,
11379,,
11380,,
11381,,
11382,,
11383,,
11384,,
11385,,
11386,,
11387,,
11388,,
11389,,
11390,,
11392,,
11393,,
11394,,
11395,,
11396,,
11397,,
11398,,
11400,,
11401,,
11402,,
11403,,
11404,,
11405,,
11406,,
11407,,
11408,,
11409,,
11410,,
11411,,
11412,,
11413,,
11414,,
11415,,
11416,,
11418,,
11420,,
11421,,
11423,,
11424,,
11425,,
11426,,
11427,,
11428,,
11431,,
11432,,
11433,,
11434,,
11435,,
11437,,
11438,,
11439,,
11441,,
11442,,
11443,,
11444,,
11445,,
11446,,
11447,,
11448,,
11449,,
11450,,
11451,,
11452,,
11454,,
11455,,
11456,,
11457,,
11458,,
11459,,
11460,,
11461,,
11462,,
11463,,
11464,,
11465,,
11466,,
11467,,
11468,,
11469,,
11470,,
11471,,
11472,,
11473,,
11474,,
11475,,
11476,,
11477,,
11479,,
11481,,
11482,,
11483,,
11484,,
11485,,
11486,,
11487,,
11488,,
11489,,
11490,,
11491,,
11492,,
11493,,
11494,,
11495,,
11496,,
11497,,
11498,,
11499,,
11500,,
11501,,
11502,,
11503,,
11504,,
11505,,
11506,,
11507,,
11508,,
11509,,
11510,,
11511,,
11513,,
11515,,
11516,,
11517,,
11518,,
11519,,
11520,,
11521,,
11523,,
11524,,
11525,,
11526,,
11527,,
11528,,
11532,,
11533,,
11534,,
11535,,
11536,,
11537,,
11538,,
11539,,
11540,,
11541,,
11542,,
11543,,
11545,,
11547,,
11548,,
11549,,
11550,,
11551,,
11552,,
11554,,
11555,,
11556,,
11557,,
11558,,
11559,,
11561,,
11562,,
11564,,
11565,,
11566,,
11567,,
11568,,
11569,,
11570,,
11571,,
11572,,
11574,,
11575,,
11576,,
11578,,
11579,,
11580,,
11581,,
11582,,
11583,,
11584,,
11585,,
11586,,
11587,,
11588,,
11589,,
11590,,
11592,,
11593,,
11594,,
11595,,
11596,,
11597,,
11599,,
11600,,
11601,,
11602,,
11603,,
11604,,
11605,,
11606,,
11608,,
11609,,
11610,,
11612,,
11613,,
11614,,
11615,,
11617,,
11618,,
11619,,
11620,,
11621,,
11622,,
11623,,
11624,,
11625,,
11628,,
11629,,
11630,,
11631,,
11632,,
11633,,
11634,,
11635,,
11636,,
11637,,
11638,,
11640,,
11641,,
11643,,
11644,,
11645,,
11646,,
11647,,
11650,,
11651,,
11652,,
11653,,
11655,,
11656,,
11659,,
11661,,
11662,,
11663,,
11664,,
11665,,
11666,,
11667,,
11670,,
11671,,
11673,,
11674,,
11675,,
11676,,
11677,,
11678,,
11679,,
11680,,
11682,,
11683,,
11684,,
11685,,
11686,,
11687,,
11688,,
11689,,
11691,,
11692,,
11693,,
11694,,
11695,,
11696,,
11697,,
11698,,
11700,,
11701,,
11702,,
11703,,
11704,,
11705,,
11706,,
11707,,
11708,,
11709,,
11710,,
11711,,
11712,,
11714,,
11715,,
11716,,
11717,,
11718,,
11719,,
11720,,
11721,,
11722,,
11723,,
11724,,
11725,,
11726,,
11728,,
11729,,
11731,,
11732,,
11734,,
11735,,
11736,,
11738,,
11739,,
11740,,
11741,,
11742,,
11743,,
11744,,
11746,,
11747,,
11748,,
11749,,
11751,,
11752,,
11753,,
11754,,
11755,,
11756,,
11757,,
11758,,
11759,,
11760,,
11761,,
11762,,
11763,,
11764,,
11765,,
11766,,
11767,,
11769,,
11771,,
11773,,
11774,,
11775,,
11776,,
11777,,
11778,,
11779,,
11781,,
11782,,
11783,,
11784,,
11785,,
11786,,
11787,,
11788,,
11790,,
11792,,
11793,,
11794,,
11795,,
11797,,
11798,,
11799,,
11800,,
11801,,
11802,,
11804,,
11805,,
11806,,
11807,,
11810,,
11811,,
11812,,
11813,,
11816,,
11817,,
11818,,
11819,,
11822,,
11824,,
11825,,
11827,,
11828,,
11830,,
11831,,
11832,,
11833,,
11834,,
11836,,
11837,,
11838,,
11839,,
11840,,
11841,,
11842,,
11843,,
11844,,
11845,,
11846,,
11847,,
11848,,
11849,,
11850,,
11851,,
11853,,
11854,,
11856,,
11858,,
11859,,
11860,,
11861,,
11862,,
11863,,
11868,,
11869,,
11873,,
11875,,
11877,,
11879,,
11881,,
11882,,
11883,,
11884,,
11885,,
11886,,
11888,,
11889,,
11890,,
11891,,
11892,,
11893,,
11894,,
11895,,
11896,,
11897,,
11898,,
11899,,
11903,,
11906,,
11907,,
11909,,
11910,,
11913,,
11914,,
11916,,
11917,,
11918,,
11919,,
11920,,
11921,,
11924,,
11925,,
11926,,
11928,,
11934,,
11936,,
11937,,
11939,,
11940,,
11942,,
11943,,
11944,,
11946,,
11947,,
11950,,
11951,,
11953,,
11955,,
11957,,
11959,,
11960,,
11961,,
11962,,
11963,,
11964,,
11965,,
11966,,
11967,,
11968,,
11969,,
11970,,
11971,,
11973,,
11974,,
11976,,
11978,,
11979,,
11980,,
11981,,
11982,,
11984,,
11985,,
11986,,
11987,,
11988,,
11990,,
11991,,
11992,,
11993,,
11994,,
11995,,
11996,,
11997,,
11998,,
11999,,
12000,,
12001,,
12002,,
12003,,
12004,,
12007,,
12008,,
12009,,
12010,,
12011,,
12012,,
12013,,
12014,,
12015,,
12017,,
12018,,
12019,,
12020,,
12021,,
12023,,
12024,,
12025,,
12026,,
12027,,
12028,,
12029,,
12030,,
12032,,
12033,,
12034,,
12035,,
12036,,
12037,,
12038,,
12039,,
12040,,
12041,,
12042,,
12044,,
12045,,
12046,,
12049,,
12050,,
12051,,
12052,,
12053,,
12055,,
12057,,
12058,,
12059,,
12060,,
12061,,
12062,,
12063,,
12065,,
12067,,
12068,,
12069,,
12070,,
12071,,
12073,,
12074,,
12075,,
12076,,
12077,,
12079,,
12080,,
12081,,
12082,,
12083,,
12084,,
12086,,
12087,,
12088,,
12089,,
12092,,
12093,,
12095,,
12096,,
12098,,
12099,,
12100,,
12101,,
12104,,
12105,,
12107,,
12108,,
12109,,
12110,,
12113,,
12115,,
12116,,
12118,,
12119,,
12120,,
12122,,
12123,,
12124,,
12127,,
12131,,
12134,,
12135,,
12136,,
12137,,
12138,,
12139,,
12140,,
12141,,
12142,,
12143,,
12144,,
12145,,
12146,,
12147,,
12148,,
12149,,
12150,,
12151,,
12152,,
12153,,
12154,,
12156,,
12157,,
12158,,
12159,,
12161,,
12163,,
12164,,
12166,,
12167,,
12168,,
12169,,
12170,,
12171,,
12172,,
12174,,
12175,,
12176,,
12177,,
12178,,
12179,,
12180,,
12181,,
12182,,
12183,,
12184,,
12185,,
12186,,
12188,,
12189,,
12190,,
12191,,
12193,,
12195,,
12196,,
12198,,
12199,,
12200,,
12201,,
12202,,
12204,,
12205,,
12206,,
12207,,
12209,,
12210,,
12211,,
12212,,
12213,,
12217,,
12218,,
12220,,
12221,,
12222,,
12223,,
12225,,
12226,,
12227,,
12228,,
12229,,
12230,,
12231,,
12234,,
12235,,
12236,,
12237,,
12238,,
12239,,
12240,,
12242,,
12243,,
12244,,
12245,,
12246,,
12247,,
12248,,
12249,,
12250,,
12251,,
12252,,
12253,,
12254,,
12255,,
12256,,
12257,,
12258,,
12259,,
12261,,
12262,,
12263,,
12264,,
12266,,
12267,,
12268,,
12269,,
12271,,
12272,,
12273,,
12274,,
12275,,
12276,,
12277,,
12278,,
12279,,
12280,,
12282,,
12283,,
12284,,
12286,,
12287,,
12288,,
12289,,
12290,,
12291,,
12293,,
12294,,
12295,,
12296,,
12297,,
12298,,
12299,,
12300,,
12301,,
12303,,
12304,,
12305,,
12306,,
12307,,
12308,,
12309,,
12310,,
12311,,
12312,,
12313,,
12314,,
12315,,
12316,,
12317,,
12319,,
12320,,
12321,,
12322,,
12323,,
12324,,
12325,,
12326,,
12327,,
12329,,
12330,,
12331,,
12332,,
12333,,
12334,,
12335,,
12336,,
12337,,
12339,,
12340,,
12342,,
12343,,
12344,,
12345,,
12346,,
12348,,
12349,,
12350,,
12351,,
12353,,
12354,,
12357,,
12358,,
12359,,
12360,,
12361,,
12362,,
12363,,
12364,,
12365,,
12366,,
12367,,
12368,,
12369,,
12370,,
12371,,
12372,,
12373,,
12374,,
12375,,
12376,,
12378,,
12379,,
12380,,
12381,,
12382,,
12383,,
12384,,
12385,,
12386,,
12388,,
12389,,
12390,,
12391,,
12394,,
12398,,
12400,,
12401,,
12403,,
12407,,
12408,,
12409,,
12410,,
12414,,
12415,,
12416,,
12418,,
12419,,
12420,,
12421,,
12422,,
12423,,
12427,,
12429,,
12430,,
12431,,
12434,,
12435,,
12436,,
12438,,
12440,,
12441,,
12442,,
12443,,
12444,,
12445,,
12446,,
12448,,
12449,,
12450,,
12452,,
12453,,
12454,,
12455,,
12456,,
12458,,
12459,,
12460,,
12461,,
12462,,
12463,,
12464,,
12465,,
12466,,
12467,,
12468,,
12471,,
12472,,
12473,,
12474,,
12475,,
12476,,
12477,,
12478,,
12479,,
12480,,
12481,,
12483,,
12484,,
12485,,
12486,,
12487,,
12488,,
12489,,
12491,,
12492,,
12493,,
12495,,
12496,,
12497,,
12498,,
12500,,
12502,,
12503,,
12504,,
12505,,
12506,,
12507,,
12508,,
12509,,
12510,,
12511,,
12512,,
12513,,
12514,,
12516,,
12517,,
12518,,
12519,,
12520,,
12521,,
12522,,
12523,,
12524,,
12526,,
12527,,
12528,,
12529,,
12531,,
12532,,
12533,,
12534,,
12536,,
12537,,
12538,,
12539,,
12541,,
12542,,
12545,,
12547,,
12548,,
12549,,
12551,,
12552,,
12553,,
12554,,
12555,,
12556,,
12557,,
12558,,
12559,,
12560,,
12561,,
12562,,
12563,,
12564,,
12568,,
12569,,
12570,,
12571,,
12573,,
12574,,
12575,,
12576,,
12577,,
12578,,
12579,,
12581,,
12582,,
12583,,
12584,,
12585,,
12587,,
12588,,
12589,,
12591,,
12594,,
12596,,
12597,,
12599,,
12600,,
12601,,
12602,,
12603,,
12605,,
12606,,
12607,,
12608,,
12609,,
12611,,
12612,,
12613,,
12616,,
12617,,
12618,,
12619,,
12620,,
12621,,
12622,,
12623,,
12624,,
12625,,
12626,,
12627,,
12628,,
12629,,
12630,,
12631,,
12632,,
12634,,
12635,,
12636,,
12637,,
12638,,
12639,,
12640,,
12641,,
12642,,
12643,,
12644,,
12646,,
12647,,
12648,,
12649,,
12651,,
12652,,
12654,,
12655,,
12656,,
12657,,
12659,,
12660,,
12661,,
12662,,
12663,,
12664,,
12665,,
12666,,
12667,,
12668,,
12669,,
12670,,
12672,,
12673,,
12675,,
12676,,
12677,,
12679,,
12680,,
12682,,
12683,,
12684,,
12686,,
12687,,
12688,,
12689,,
12690,,
12691,,
12692,,
12693,,
12694,,
12695,,
12696,,
12698,,
12700,,
12701,,
12702,,
12705,,
12707,,
12709,,
12710,,
12711,,
12712,,
12714,,
12715,,
12716,,
12717,,
12718,,
12719,,
12720,,
12721,,
12722,,
12723,,
12724,,
12725,,
12726,,
12727,,
12728,,
12729,,
12732,,
12733,,
12734,,
12735,,
12736,,
12737,,
12738,,
12739,,
12740,,
12741,,
12742,,
12743,,
12744,,
12745,,
12746,,
12747,,
12748,,
12749,,
12750,,
12752,,
12753,,
12754,,
12755,,
12757,,
12758,,
12759,,
12760,,
12761,,
12762,,
12764,,
12765,,
12766,,
12767,,
12768,,
12769,,
12771,,
12773,,
12774,,
12775,,
12777,,
12778,,
12779,,
12780,,
12781,,
12782,,
12783,,
12784,,
12785,,
12786,,
12787,,
12788,,
12789,,
12792,,
12793,,
12794,,
12795,,
12797,,
12798,,
12799,,
12800,,
12801,,
12802,,
12803,,
12804,,
12805,,
12806,,
12807,,
12808,,
12809,,
12810,,
12811,,
12812,,
12813,,
12814,,
12815,,
12816,,
12817,,
12818,,
12819,,
12820,,
12821,,
12822,,
12824,,
12825,,
12826,,
12827,,
12828,,
12830,,
12831,,
12832,,
12833,,
12834,,
12835,,
12836,,
12837,,
12838,,
12839,,
12840,,
12841,,
12842,,
12843,,
12844,,
12845,,
12846,,
12847,,
12848,,
12849,,
12850,,
12851,,
12852,,
12853,,
12854,,
12855,,
12856,,
12858,,
12859,,
12860,,
12863,,
12865,,
12866,,
12867,,
12868,,
12869,,
12871,,
12872,,
12873,,
12874,,
12875,,
12876,,
12877,,
12878,,
12880,,
12881,,
12882,,
12883,,
12885,,
12887,,
12888,,
12889,,
12891,,
12892,,
12893,,
12894,,
12895,,
12897,,
12898,,
12899,,
12900,,
12902,,
12903,,
12904,,
12905,,
12906,,
12907,,
12908,,
12909,,
12910,,
12911,,
12912,,
12914,,
12915,,
12917,,
12919,,
12920,,
12921,,
12922,,
12923,,
12925,,
12926,,
12927,,
12928,,
12929,,
12930,,
12931,,
12932,,
12933,,
12934,,
12936,,
12937,,
12938,,
12939,,
12940,,
12941,,
12942,,
12944,,
12945,,
12946,,
12948,,
12950,,
12952,,
12953,,
12954,,
12955,,
12956,,
12957,,
12958,,
12959,,
12960,,
12963,,
12964,,
12965,,
12969,,
12970,,
12971,,
12972,,
12973,,
12974,,
12975,,
12976,,
12977,,
12980,,
12981,,
12982,,
12983,,
12984,,
12986,,
12987,,
12988,,
12989,,
12990,,
12991,,
12992,,
12994,,
12996,,
12997,,
12998,,
12999,,
13000,,
13001,,
13004,,
13006,,
13007,,
13008,,
13009,,
13010,,
13011,,
13012,,
13013,,
13014,,
13015,,
13016,,
13017,,
13018,,
13019,,
13020,,
13021,,
13022,,
13025,,
13026,,
13027,,
13028,,
13029,,
13031,,
13032,,
13033,,
13034,,
13035,,
13036,,
13039,,
13040,,
13041,,
13042,,
13043,,
13044,,
13046,,
13048,,
13049,,
13050,,
13051,,
13052,,
13053,,
13054,,
13055,,
13056,,
13057,,
13058,,
13059,,
13060,,
13061,,
13062,,
13063,,
13065,,
13066,,
13067,,
13068,,
13069,,
13070,,
13071,,
13072,,
13073,,
13074,,
13075,,
13076,,
13078,,
13079,,
13080,,
13081,,
13082,,
13083,,
13084,,
13085,,
13086,,
13087,,
13088,,
13089,,
13090,,
13091,,
13092,,
13093,,
13094,,
13095,,
13096,,
13097,,
13098,,
13099,,
13100,,
13101,,
13102,,
13103,,
13104,,
13105,,
13106,,
13108,,
13109,,
13110,,
13111,,
13112,,
13114,,
13115,,
13116,,
13117,,
13118,,
13120,,
13121,,
13123,,
13124,,
13126,,
13127,,
13128,,
13129,,
13130,,
13131,,
13132,,
13134,,
13135,,
13136,,
13137,,
13138,,
13139,,
13140,,
13141,,
13142,,
13143,,
13144,,
13145,,
13146,,
13147,,
13148,,
13149,,
13150,,
13151,,
13153,,
13155,,
13156,,
13157,,
13159,,
13160,,
13161,,
13162,,
13164,,
13167,,
13168,,
13169,,
13170,,
13171,,
13172,,
13173,,
13174,,
13175,,
13176,,
13177,,
13180,,
13181,,
13183,,
13184,,
13185,,
13187,,
13189,,
13191,,
13192,,
13193,,
13195,,
13196,,
13197,,
13198,,
13200,,
13201,,
13203,,
13204,,
13205,,
13206,,
13207,,
13208,,
13210,,
13212,,
13214,,
13216,,
13217,,
13218,,
13219,,
13220,,
13221,,
13224,,
13225,,
13226,,
13228,,
13229,,
13230,,
13231,,
13232,,
13233,,
13235,,
13236,,
13237,,
13238,,
13239,,
13240,,
13241,,
13244,,
13245,,
13246,,
13247,,
13248,,
13250,,
13251,,
13252,,
13253,,
13255,,
13257,,
13259,,
13260,,
13261,,
13262,,
13263,,
13264,,
13265,,
13267,,
13268,,
13269,,
13271,,
13273,,
13274,,
13275,,
13277,,
13279,,
13282,,
13283,,
13285,,
13286,,
13287,,
13288,,
13290,,
13291,,
13292,,
13294,,
13295,,
13296,,
13297,,
13298,,
13299,,
13300,,
13301,,
13303,,
13304,,
13306,,
13307,,
13309,,
13310,,
13311,,
13312,,
13313,,
13314,,
13315,,
13316,,
13317,,
13318,,
13319,,
13320,,
13321,,
13322,,
13324,,
13327,,
13328,,
13329,,
13330,,
13331,,
13332,,
13333,,
13336,,
13338,,
13339,,
13340,,
13342,,
13343,,
13344,,
13345,,
13346,,
13347,,
13350,,
13351,,
13352,,
13353,,
13354,,
13355,,
13356,,
13357,,
13359,,
13360,,
13361,,
13362,,
13363,,
13364,,
13365,,
13366,,
13367,,
13369,,
13371,,
13372,,
13374,,
13376,,
13377,,
13378,,
13379,,
13380,,
13381,,
13383,,
13385,,
13386,,
13389,,
13390,,
13391,,
13392,,
13394,,
13395,,
13400,,
13403,,
13405,,
13406,,
13407,,
13408,,
13413,,
13414,,
13415,,
13416,,
13417,,
13418,,
13420,,
13421,,
13425,,
13426,,
13427,,
13428,,
13429,,
13430,,
13431,,
13432,,
13434,,
13438,,
13439,,
13440,,
13442,,
13444,,
13445,,
13446,,
13447,,
13448,,
13449,,
13451,,
13452,,
13453,,
13454,,
13455,,
13457,,
13458,,
13460,,
13461,,
13462,,
13464,,
13465,,
13466,,
13467,,
13468,,
13469,,
13470,,
13471,,
13472,,
13473,,
13474,,
13476,,
13477,,
13478,,
13479,,
13481,,
13482,,
13483,,
13484,,
13485,,
13486,,
13487,,
13488,,
13489,,
13491,,
13492,,
13493,,
13495,,
13496,,
13497,,
13498,,
13499,,
13500,,
13501,,
13502,,
13503,,
13504,,
13505,,
13506,,
13507,,
13508,,
13509,,
13510,,
13511,,
13512,,
13513,,
13514,,
13516,,
13517,,
13518,,
13521,,
13523,,
13524,,
13525,,
13526,,
13527,,
13528,,
13530,,
13531,,
13532,,
13534,,
13535,,
13536,,
13537,,
13538,,
13540,,
13541,,
13542,,
13543,,
13544,,
13545,,
13546,,
13547,,
13548,,
13549,,
13550,,
13551,,
13552,,
13553,,
13554,,
13555,,
13556,,
13557,,
13558,,
13559,,
13561,,
13562,,
13564,,
13565,,
13566,,
13567,,
13569,,
13571,,
13572,,
13573,,
13574,,
13575,,
13576,,
13577,,
13578,,
13580,,
13582,,
13583,,
13584,,
13585,,
13587,,
13588,,
13589,,
13590,,
13591,,
13592,,
13593,,
13594,,
13595,,
13596,,
13597,,
13598,,
13599,,
13601,,
13602,,
13603,,
13604,,
13605,,
13606,,
13607,,
13608,,
13611,,
13612,,
13614,,
13615,,
13616,,
13617,,
13619,,
13620,,
13621,,
13622,,
13623,,
13624,,
13625,,
13626,,
13627,,
13628,,
13629,,
13631,,
13632,,
13633,,
13638,,
13639,,
13640,,
13641,,
13642,,
13643,,
13644,,
13645,,
13647,,
13648,,
13649,,
13650,,
13651,,
13652,,
13653,,
13654,,
13655,,
13658,,
13659,,
13660,,
13662,,
13665,,
13666,,
13667,,
13669,,
13670,,
13671,,
13672,,
13675,,
13676,,
13677,,
13678,,
13679,,
13682,,
13683,,
13685,,
13686,,
13687,,
13689,,
13690,,
13692,,
13693,,
13694,,
13695,,
13696,,
13697,,
13699,,
13702,,
13703,,
13704,,
13705,,
13706,,
13707,,
13708,,
13710,,
13711,,
13712,,
13713,,
13714,,
13715,,
13716,,
13717,,
13718,,
13719,,
13720,,
13721,,
13722,,
13724,,
13725,,
13726,,
13727,,
13728,,
13729,,
13730,,
13731,,
13732,,
13733,,
13735,,
13736,,
13737,,
13738,,
13739,,
13740,,
13741,,
13742,,
13743,,
13744,,
13745,,
13746,,
13747,,
13748,,
13749,,
13752,,
13754,,
13755,,
13756,,
13757,,
13758,,
13759,,
13760,,
13761,,
13763,,
13764,,
13768,,
13769,,
13770,,
13771,,
13772,,
13773,,
13776,,
13777,,
13778,,
13779,,
13782,,
13783,,
13785,,
13786,,
13787,,
13788,,
13789,,
13790,,
13791,,
13792,,
13794,,
13795,,
13797,,
13800,,
13801,,
13803,,
13804,,
13805,,
13806,,
13808,,
13809,,
13811,,
13813,,
13814,,
13815,,
13816,,
13817,,
13818,,
13819,,
13820,,
13821,,
13822,,
13823,,
13824,,
13827,,
13828,,
13829,,
13830,,
13831,,
13833,,
13834,,
13836,,
13837,,
13838,,
13839,,
13840,,
13841,,
13843,,
13844,,
13845,,
13846,,
13847,,
13848,,
13851,,
13852,,
13853,,
13854,,
13856,,
13857,,
13858,,
13859,,
13860,,
13861,,
13862,,
13863,,
13864,,
13868,,
13870,,
13872,,
13873,,
13874,,
13875,,
13876,,
13877,,
13879,,
13880,,
13881,,
13882,,
13883,,
13886,,
13887,,
13888,,
13889,,
13890,,
13891,,
13892,,
13893,,
13894,,
13895,,
13896,,
13897,,
13898,,
13899,,
13900,,
13901,,
13902,,
13903,,
13904,,
13905,,
13906,,
13907,,
13908,,
13909,,
13911,,
13912,,
13913,,
13914,,
13916,,
13917,,
13918,,
13920,,
13921,,
13922,,
13924,,
13926,,
13930,,
13931,,
13933,,
13934,,
13935,,
13937,,
13939,,
13940,,
13941,,
13942,,
13943,,
13944,,
13947,,
13949,,
13951,,
13952,,
13953,,
13954,,
13957,,
13958,,
13959,,
13961,,
13962,,
13963,,
13964,,
13965,,
13966,,
13968,,
13970,,
13971,,
13972,,
13973,,
13974,,
13975,,
13976,,
13978,,
13979,,
13980,,
13981,,
13982,,
13983,,
13984,,
13985,,
13986,,
13987,,
13988,,
13990,,
13991,,
13992,,
13993,,
13994,,
13995,,
13998,,
13999,,
14000,,
14001,,
14002,,
14003,,
14004,,
14005,,
14006,,
14007,,
14008,,
14009,,
14010,,
14011,,
14013,,
14014,,
14016,,
14019,,
14021,,
14022,,
14023,,
14024,,
14025,,
14028,,
14029,,
14031,,
14032,,
14035,,
14036,,
14037,,
14038,,
14039,,
14040,,
14041,,
14042,,
14046,,
14047,,
14048,,
14049,,
14050,,
14051,,
14052,,
14053,,
14055,,
14056,,
14057,,
14058,,
14060,,
14062,,
14064,,
14068,,
14069,,
14070,,
14071,,
14072,,
14073,,
14074,,
14075,,
14076,,
14077,,
14078,,
14081,,
14082,,
14083,,
14084,,
14086,,
14087,,
14088,,
14090,,
14091,,
14092,,
14094,,
14095,,
14097,,
14098,,
14099,,
14100,,
14101,,
14102,,
14103,,
14104,,
14105,,
14106,,
14107,,
14108,,
14109,,
14110,,
14112,,
14114,,
14115,,
14117,,
14118,,
14119,,
14121,,
14123,,
14124,,
14126,,
14127,,
14129,,
14130,,
14131,,
14132,,
14133,,
14134,,
14135,,
14136,,
14138,,
14142,,
14143,,
14144,,
14145,,
14146,,
14148,,
14149,,
14150,,
14151,,
14152,,
14153,,
14154,,
14156,,
14157,,
14158,,
14159,,
14160,,
14161,,
14162,,
14164,,
14165,,
14166,,
14167,,
14168,,
14169,,
14170,,
14171,,
14172,,
14173,,
14174,,
14175,,
14176,,
14177,,
14178,,
14179,,
14181,,
14182,,
14183,,
14186,,
14187,,
14188,,
14190,,
14191,,
14192,,
14193,,
14194,,
14195,,
14196,,
14197,,
14198,,
14199,,
14200,,
14201,,
14202,,
14203,,
14204,,
14205,,
14206,,
14207,,
14208,,
14209,,
14210,,
14212,,
14213,,
14215,,
14216,,
14217,,
14218,,
14219,,
14221,,
14222,,
14223,,
14224,,
14225,,
14226,,
14228,,
14229,,
14230,,
14231,,
14232,,
14234,,
14236,,
14237,,
14238,,
14241,,
14242,,
14243,,
14244,,
14245,,
14246,,
14247,,
14248,,
14249,,
14252,,
14253,,
14254,,
14256,,
14257,,
14259,,
14261,,
14262,,
14263,,
14264,,
14265,,
14266,,
14267,,
14268,,
14269,,
14270,,
14271,,
14272,,
14273,,
14275,,
14276,,
14277,,
14278,,
14279,,
14280,,
14281,,
14282,,
14283,,
14284,,
14285,,
14286,,
14287,,
14288,,
14289,,
14290,,
14291,,
14292,,
14293,,
14294,,
14295,,
14298,,
14299,,
14300,,
14301,,
14302,,
14303,,
14304,,
14305,,
14307,,
14308,,
14309,,
14310,,
14311,,
14312,,
14313,,
14314,,
14315,,
14316,,
14318,,
14320,,
14321,,
14322,,
14324,,
14325,,
14326,,
14327,,
14328,,
14329,,
14330,,
14331,,
14332,,
14333,,
14334,,
14335,,
14336,,
14337,,
14340,,
14342,,
14343,,
14347,,
14348,,
14349,,
14350,,
14351,,
14352,,
14353,,
14355,,
14356,,
14360,,
14363,,
14364,,
14366,,
14367,,
14368,,
14369,,
14370,,
14371,,
14372,,
14374,,
14375,,
14376,,
14377,,
14379,,
14380,,
14381,,
14382,,
14383,,
14384,,
14385,,
14386,,
14387,,
14388,,
14389,,
14390,,
14391,,
14392,,
14395,,
14396,,
14398,,
14400,,
14401,,
14402,,
14403,,
14405,,
14406,,
14407,,
14409,,
14410,,
14412,,
14413,,
14414,,
14415,,
14416,,
14417,,
14418,,
14419,,
14422,,
14426,,
14430,,
14431,,
14432,,
14433,,
14435,,
14437,,
14438,,
14439,,
14441,,
14442,,
14443,,
14445,,
14446,,
14447,,
14450,,
14452,,
14453,,
14455,,
14457,,
14458,,
14460,,
14462,,
14464,,
14465,,
14468,,
14469,,
14470,,
14471,,
14472,,
14474,,
14476,,
14477,,
14478,,
14480,,
14482,,
14485,,
14486,,
14488,,
14489,,
14493,,
14494,,
14495,,
14496,,
14497,,
14499,,
14500,,
14501,,
14502,,
14503,,
14504,,
14505,,
14506,,
14507,,
14508,,
14509,,
14510,,
14511,,
14512,,
14514,,
14515,,
14517,,
14518,,
14520,,
14521,,
14523,,
14524,,
14526,,
14527,,
14528,,
14529,,
14530,,
14531,,
14533,,
14535,,
14536,,
14539,,
14540,,
14541,,
14543,,
14544,,
14545,,
14546,,
14547,,
14548,,
14549,,
14550,,
14551,,
14552,,
14554,,
14555,,
14556,,
14557,,
14558,,
14559,,
14560,,
14562,,
14564,,
14565,,
14566,,
14567,,
14568,,
14569,,
14570,,
14571,,
14572,,
14573,,
14574,,
14575,,
14576,,
14577,,
14578,,
14579,,
14580,,
14581,,
14582,,
14583,,
14584,,
14585,,
14586,,
14587,,
14588,,
14589,,
14590,,
14591,,
14592,,
14593,,
14594,,
14596,,
14597,,
14598,,
14599,,
14601,,
14602,,
14603,,
14604,,
14605,,
14606,,
14607,,
14608,,
14609,,
14610,,
14611,,
14612,,
14613,,
14614,,
14616,,
14617,,
14618,,
14619,,
14620,,
14622,,
14624,,
14625,,
14626,,
14627,,
14629,,
14630,,
14631,,
14632,,
14633,,
14634,,
14635,,
14636,,
14637,,
14638,,
14639,,
14642,,
14643,,
14644,,
14645,,
14646,,
14647,,
14648,,
14649,,
14650,,
14651,,
14652,,
14653,,
14654,,
14655,,
14656,,
14657,,
14658,,
14659,,
14660,,
14661,,
14662,,
14663,,
14665,,
14666,,
14667,,
14669,,
14670,,
14671,,
14672,,
14673,,
14674,,
14675,,
14676,,
14677,,
14678,,
14679,,
14680,,
14681,,
14682,,
14683,,
14685,,
14686,,
14687,,
14688,,
14689,,
14690,,
14691,,
14692,,
14694,,
14695,,
14696,,
14697,,
14698,,
14699,,
14700,,
14702,,
14705,,
14708,,
14709,,
14710,,
14711,,
14712,,
14713,,
14714,,
14715,,
14717,,
14718,,
14719,,
14720,,
14721,,
14722,,
14723,,
14725,,
14726,,
14727,,
14728,,
14732,,
14733,,
14734,,
14735,,
14736,,
14739,,
14740,,
14741,,
14743,,
14744,,
14746,,
14747,,
14748,,
14749,,
14750,,
14751,,
14752,,
14753,,
14754,,
14755,,
14756,,
14757,,
14758,,
14759,,
14760,,
14761,,
14762,,
14763,,
14764,,
14765,,
14766,,
14767,,
14768,,
14769,,
14770,,
14771,,
14772,,
14773,,
14774,,
14775,,
14776,,
14777,,
14778,,
14779,,
14780,,
14781,,
14782,,
14783,,
14784,,
14785,,
14786,,
14787,,
14788,,
14789,,
14790,,
14791,,
14793,,
14795,,
14796,,
14797,,
14798,,
14801,,
14802,,
14803,,
14805,,
14806,,
14807,,
14808,,
14809,,
14810,,
14811,,
14813,,
14814,,
14815,,
14816,,
14817,,
14818,,
14819,,
14820,,
14821,,
14822,,
14823,,
14824,,
14825,,
14826,,
14827,,
14828,,
14829,,
14830,,
14831,,
14832,,
14833,,
14834,,
14835,,
14836,,
14837,,
14838,,
14839,,
14840,,
14841,,
14842,,
14843,,
14845,,
14847,,
14848,,
14850,,
14851,,
14852,,
14854,,
14855,,
14856,,
14857,,
14858,,
14859,,
14860,,
14862,,
14863,,
14864,,
14867,,
14868,,
14869,,
14870,,
14871,,
14873,,
14875,,
14876,,
14877,,
14878,,
14879,,
14880,,
14881,,
14882,,
14883,,
14884,,
14885,,
14886,,
14888,,
14889,,
14890,,
14891,,
14892,,
14894,,
14895,,
14897,,
14900,,
14901,,
14902,,
14903,,
14904,,
14905,,
14906,,
14907,,
14908,,
14910,,
14911,,
14912,,
14913,,
14914,,
14915,,
14916,,
14919,,
14922,,
14923,,
14926,,
14927,,
14928,,
14929,,
14930,,
14931,,
14932,,
14934,,
14935,,
14937,,
14938,,
14940,,
14941,,
14942,,
14943,,
14945,,
14947,,
14948,,
14949,,
14950,,
14951,,
14952,,
14953,,
14954,,
14955,,
14956,,
14957,,
14958,,
14959,,
14960,,
14961,,
14962,,
14963,,
14964,,
14965,,
14966,,
14967,,
14968,,
14971,,
14972,,
14973,,
14974,,
14975,,
14976,,
14977,,
14978,,
14979,,
14981,,
14982,,
14983,,
14984,,
14985,,
14986,,
14988,,
14989,,
14990,,
14991,,
14992,,
14993,,
14994,,
14995,,
14996,,
14997,,
14998,,
14999,,
15000,,
15001,,
15002,,
15003,,
15005,,
15006,,
15007,,
15008,,
15009,,
15010,,
15011,,
15013,,
15014,,
15015,,
15017,,
15018,,
15019,,
15021,,
15022,,
15023,,
15024,,
15025,,
15026,,
15028,,
15030,,
15031,,
15033,,
15034,,
15035,,
15036,,
15038,,
15039,,
15040,,
15042,,
15044,,
15045,,
15046,,
15047,,
15048,,
15049,,
15051,,
15052,,
15053,,
15055,,
15056,,
15057,,
15058,,
15059,,
15062,,
15063,,
15064,,
15069,,
15070,,
15071,,
15072,,
15073,,
15074,,
15075,,
15076,,
15077,,
15078,,
15079,,
15080,,
15081,,
15082,,
15083,,
15084,,
15085,,
15086,,
15087,,
15088,,
15089,,
15090,,
15091,,
15092,,
15093,,
15094,,
15095,,
15096,,
15097,,
15098,,
15099,,
15102,,
15103,,
15104,,
15105,,
15106,,
15107,,
15109,,
15110,,
15111,,
15112,,
15113,,
15114,,
15116,,
15117,,
15118,,
15119,,
15120,,
15121,,
15122,,
15123,,
15124,,
15125,,
15129,,
15131,,
15133,,
15134,,
15135,,
15136,,
15138,,
15139,,
15140,,
15141,,
15142,,
15144,,
15145,,
15146,,
15147,,
15148,,
15149,,
15150,,
15152,,
15153,,
15155,,
15156,,
15157,,
15158,,
15159,,
15162,,
15163,,
15165,,
15166,,
15168,,
15169,,
15170,,
15171,,
15172,,
15173,,
15174,,
15175,,
15176,,
15177,,
15178,,
15179,,
15180,,
15181,,
15182,,
15184,,
15185,,
15186,,
15187,,
15188,,
15189,,
15190,,
15192,,
15193,,
15194,,
15195,,
15196,,
15197,,
15198,,
15199,,
15200,,
15201,,
15202,,
15203,,
15204,,
15205,,
15206,,
15207,,
15209,,
15210,,
15213,,
15214,,
15216,,
15218,,
15219,,
15220,,
15221,,
15222,,
15224,,
15225,,
15226,,
15227,,
15228,,
15229,,
15231,,
15233,,
15234,,
15235,,
15236,,
15237,,
15238,,
15240,,
15241,,
15242,,
15244,,
15245,,
15246,,
15247,,
15248,,
15252,,
15253,,
15254,,
15255,,
15256,,
15257,,
15258,,
15259,,
15260,,
15261,,
15262,,
15263,,
15264,,
15265,,
15266,,
15267,,
15268,,
15269,,
15270,,
15271,,
15272,,
15273,,
15274,,
15275,,
15276,,
15277,,
15278,,
15279,,
15280,,
15281,,
15282,,
15283,,
15285,,
15286,,
15287,,
15288,,
15289,,
15290,,
15291,,
15292,,
15293,,
15294,,
15295,,
15296,,
15297,,
15298,,
15299,,
15300,,
15301,,
15302,,
15303,,
15304,,
15305,,
15306,,
15307,,
15308,,
15309,,
15310,,
15312,,
15313,,
15314,,
15315,,
15316,,
15317,,
15318,,
15319,,
15320,,
15321,,
15322,,
15323,,
15324,,
15325,,
15327,,
15328,,
15329,,
15330,,
15331,,
15332,,
15333,,
15334,,
15335,,
15336,,
15337,,
15338,,
15339,,
15340,,
15341,,
15343,,
15344,,
15345,,
15346,,
15347,,
15348,,
15349,,
15350,,
15351,,
15352,,
15353,,
15354,,
15355,,
15356,,
15357,,
15358,,
15359,,
15360,,
15362,,
15363,,
15364,,
15365,,
15366,,
15367,,
15368,,
15369,,
15371,,
15373,,
15374,,
15375,,
15376,,
15377,,
15378,,
15379,,
15381,,
15382,,
15383,,
15384,,
15385,,
15387,,
15388,,
15389,,
15390,,
15391,,
15392,,
15393,,
15395,,
15397,,
15398,,
15399,,
15400,,
15401,,
15403,,
15404,,
15405,,
15406,,
15407,,
15408,,
15409,,
15411,,
15412,,
15413,,
15414,,
15415,,
15416,,
15417,,
15418,,
15420,,
15421,,
15422,,
15423,,
15425,,
15426,,
15427,,
15428,,
15429,,
15430,,
15431,,
15432,,
15433,,
15435,,
15436,,
15437,,
15438,,
15439,,
15440,,
15441,,
15442,,
15443,,
15445,,
15447,,
15448,,
15449,,
15450,,
15451,,
15452,,
15453,,
15455,,
15456,,
15457,,
15458,,
15459,,
15460,,
15461,,
15462,,
15463,,
15464,,
15465,,
15466,,
15467,,
15468,,
15469,,
15470,,
15471,,
15472,,
15473,,
15474,,
15475,,
15476,,
15478,,
15479,,
15480,,
15481,,
15484,,
15485,,
15486,,
15488,,
15489,,
15490,,
15493,,
15494,,
15495,,
15496,,
15497,,
15498,,
15499,,
15500,,
15501,,
15503,,
15504,,
15505,,
15506,,
15507,,
15508,,
15509,,
15510,,
15511,,
15512,,
15513,,
15514,,
15515,,
15516,,
15517,,
15518,,
15521,,
15522,,
15523,,
15524,,
15527,,
15528,,
15530,,
15531,,
15532,,
15533,,
15534,,
15535,,
15536,,
15537,,
15539,,
15540,,
15541,,
15542,,
15544,,
15545,,
15546,,
15547,,
15548,,
15549,,
15550,,
15552,,
15553,,
15554,,
15555,,
15556,,
15557,,
15559,,
15563,,
15564,,
15566,,
15567,,
15569,,
15570,,
15571,,
15572,,
15573,,
15574,,
15575,,
15576,,
15577,,
15578,,
15579,,
15581,,
15582,,
15583,,
15584,,
15585,,
15586,,
15587,,
15588,,
15590,,
15591,,
15592,,
15593,,
15594,,
15595,,
15596,,
15597,,
15598,,
15600,,
15601,,
15602,,
15606,,
15607,,
15608,,
15609,,
15610,,
15611,,
15612,,
15613,,
15615,,
15616,,
15617,,
15618,,
15619,,
15620,,
15621,,
15622,,
15623,,
15624,,
15625,,
15626,,
15627,,
15628,,
15629,,
15630,,
15631,,
15632,,
15633,,
15634,,
15635,,
15636,,
15637,,
15638,,
15640,,
15641,,
15642,,
15644,,
15645,,
15646,,
15647,,
15648,,
15649,,
15650,,
15652,,
15653,,
15654,,
15655,,
15656,,
15658,,
15659,,
15660,,
15661,,
15662,,
15664,,
15665,,
15666,,
15667,,
15668,,
15669,,
15670,,
15671,,
15672,,
15673,,
15674,,
15675,,
15676,,
15677,,
15678,,
15679,,
15680,,
15681,,
15682,,
15683,,
15684,,
15686,,
15687,,
15688,,
15689,,
15691,,
15692,,
15693,,
15695,,
15696,,
15697,,
15699,,
15700,,
15701,,
15702,,
15704,,
15705,,
15706,,
15707,,
15708,,
15709,,
15710,,
15711,,
15712,,
15713,,
15714,,
15715,,
15716,,
15717,,
15719,,
15720,,
15721,,
15722,,
15723,,
15724,,
15725,,
15726,,
15727,,
15728,,
15729,,
15730,,
15731,,
15733,,
15734,,
15735,,
15736,,
15737,,
15738,,
15741,,
15742,,
15743,,
15745,,
15746,,
15748,,
15749,,
15750,,
15751,,
15752,,
15754,,
15755,,
15756,,
15757,,
15759,,
15760,,
15761,,
15762,,
15763,,
15764,,
15765,,
15766,,
15767,,
15768,,
15769,,
15770,,
15771,,
15772,,
15773,,
15774,,
15775,,
15776,,
15777,,
15778,,
15779,,
15780,,
15781,,
15783,,
15784,,
15785,,
15786,,
15787,,
15789,,
15790,,
15791,,
15792,,
15793,,
15794,,
15796,,
15797,,
15799,,
15800,,
15801,,
15802,,
15803,,
15804,,
15805,,
15806,,
15807,,
15808,,
15809,,
15810,,
15811,,
15812,,
15813,,
15814,,
15815,,
15816,,
15817,,
15819,,
15820,,
15821,,
15822,,
15823,,
15824,,
15825,,
15826,,
15827,,
15828,,
15829,,
15830,,
15831,,
15832,,
15833,,
15834,,
15835,,
15836,,
15837,,
15838,,
15839,,
15840,,
15841,,
15842,,
15843,,
15844,,
15845,,
15846,,
15847,,
15848,,
15849,,
15850,,
15851,,
15852,,
15853,,
15854,,
15855,,
15856,,
15857,,
15858,,
15859,,
15860,,
15861,,
15863,,
15864,,
15865,,
15866,,
15867,,
15868,,
15869,,
15870,,
15871,,
15872,,
15873,,
15875,,
15876,,
15878,,
15879,,
15880,,
15881,,
15882,,
15883,,
15884,,
15885,,
15886,,
15887,,
15888,,
15890,,
15891,,
15892,,
15893,,
15894,,
15895,,
15896,,
15897,,
15898,,
15899,,
15900,,
15901,,
15902,,
15903,,
15904,,
15905,,
15907,,
15908,,
15909,,
15910,,
15911,,
15912,,
15914,,
15915,,
15916,,
15917,,
15918,,
15919,,
15920,,
15921,,
15923,,
15924,,
15925,,
15926,,
15927,,
15928,,
15929,,
15930,,
15931,,
15932,,
15933,,
15934,,
15935,,
15937,,
15938,,
15940,,
15941,,
15942,,
15943,,
15944,,
15945,,
15946,,
15947,,
15948,,
15949,,
15950,,
15951,,
15952,,
15953,,
15954,,
15955,,
15956,,
15957,,
15958,,
15959,,
15960,,
15961,,
15962,,
15963,,
15964,,
15965,,
15966,,
15968,,
15969,,
15970,,
15971,,
15972,,
15973,,
15974,,
15975,,
15976,,
15977,,
15978,,
15980,,
15981,,
15982,,
15983,,
15984,,
15985,,
15986,,
15987,,
15989,,
15990,,
15991,,
15992,,
15993,,
15994,,
15995,,
15996,,
15997,,
15998,,
15999,,
16000,,
16001,,
16002,,
16004,,
16005,,
16006,,
16007,,
16008,,
16009,,
16010,,
16011,,
16012,,
16013,,
16014,,
16015,,
16016,,
16018,,
16019,,
16020,,
16021,,
16022,,
16023,,
16024,,
16025,,
16026,,
16027,,
16028,,
16029,,
16030,,
16031,,
16032,,
16033,,
16034,,
16035,,
16036,,
16037,,
16038,,
16039,,
16040,,
16041,,
16042,,
16043,,
16044,,
16045,,
16046,,
16047,,
16048,,
16049,,
16050,,
16051,,
16052,,
16053,,
16054,,
16055,,
16056,,
16057,,
16058,,
16059,,
16060,,
16061,,
16062,,
16063,,
16065,,
16066,,
16067,,
16068,,
16069,,
16070,,
16071,,
16072,,
16073,,
16076,,
16077,,
16078,,
16079,,
16080,,
16081,,
16082,,
16083,,
16084,,
16085,,
16086,,
16087,,
16088,,
16089,,
16090,,
16092,,
16093,,
16094,,
16096,,
16097,,
16098,,
16099,,
16100,,
16101,,
16102,,
16103,,
16104,,
16105,,
16106,,
16107,,
16108,,
16109,,
16110,,
16111,,
16112,,
16113,,
16114,,
16115,,
16116,,
16117,,
16118,,
16119,,
16120,,
16121,,
16122,,
16123,,
16124,,
16125,,
16126,,
16127,,
16128,,
16129,,
16130,,
16131,,
16132,,
16133,,
16134,,
16135,,
16136,,
16137,,
16138,,
16139,,
16140,,
16141,,
16142,,
16143,,
16144,,
16145,,
16146,,
16147,,
16148,,
16149,,
16150,,
16151,,
16152,,
16153,,
16154,,
16155,,
16156,,
16157,,
16158,,
16159,,
16160,,
16161,,
16162,,
16163,,
16164,,
16165,,
16166,,
16167,,
16168,,
16169,,
16170,,
16171,,
16172,,
16173,,
16174,,
16175,,
16176,,
16177,,
16178,,
16180,,
16181,,
16182,,
16183,,
16184,,
16185,,
16186,,
16187,,
16189,,
16190,,
16191,,
16192,,
16193,,
16194,,
16195,,
16196,,
16198,,
16199,,
16200,,
16201,,
16202,,
16203,,
16205,,
16206,,
16207,,
16208,,
16209,,
16210,,
16211,,
16212,,
16213,,
16214,,
16215,,
16216,,
16217,,
16218,,
16219,,
16220,,
16222,,
16223,,
16225,,
16226,,
16227,,
16230,,
16231,,
16232,,
16233,,
16234,,
16236,,
16238,,
16239,,
16240,,
16241,,
16242,,
