record_name,start_idx,end_idx,num_peaks
100,0,720,3
100,360,1080,3
100,720,1440,2
100,1080,1800,2
100,1440,2160,3
100,1800,2520,3
100,2160,2880,2
100,2520,3240,2
100,2880,3600,3
100,3240,3960,3
100,3600,4320,2
100,3960,4680,2
100,4320,5040,2
100,4680,5400,3
100,5040,5760,3
100,5400,6120,2
100,5760,6480,2
100,6120,6840,3
100,6480,7200,3
100,6840,7560,2
100,7200,7920,2
100,7560,8280,3
100,7920,8640,3
100,8280,9000,2
100,8640,9360,2
100,9000,9720,3
100,9360,10080,3
100,9720,10440,2
100,10080,10800,2
100,10440,11160,2
100,10800,11520,3
100,11160,11880,3
100,11520,12240,2
100,11880,12600,2
100,12240,12960,3
100,12600,13320,3
100,12960,13680,2
100,13320,14040,2
100,13680,14400,2
100,14040,14760,3
100,14400,15120,3
100,14760,15480,2
100,15120,15840,2
100,15480,16200,3
100,15840,16560,3
100,16200,16920,2
100,16560,17280,2
100,16920,17640,2
100,17280,18000,3
100,17640,18360,3
100,18000,18720,2
100,18360,19080,2
100,18720,19440,3
100,19080,19800,3
100,19440,20160,2
100,19800,20520,2
100,20160,20880,3
100,20520,21240,3
100,20880,21600,2
100,21240,21960,2
100,21600,22320,2
100,21960,22680,3
100,22320,23040,3
100,22680,23400,2
100,23040,23760,3
100,23400,24120,3
100,23760,24480,2
100,24120,24840,2
100,24480,25200,3
100,24840,25560,3
100,25200,25920,2
100,25560,26280,2
100,25920,26640,2
100,26280,27000,3
100,26640,27360,3
100,27000,27720,2
100,27360,28080,2
100,27720,28440,3
100,28080,28800,3
100,28440,29160,2
100,28800,29520,2
100,29160,29880,3
100,29520,30240,3
100,29880,30600,2
100,30240,30960,2
100,30600,31320,2
100,30960,31680,3
100,31320,32040,3
100,31680,32400,2
100,32040,32760,2
100,32400,33120,2
100,32760,33480,3
100,33120,33840,3
100,33480,34200,2
100,33840,34560,2
100,34200,34920,3
100,34560,35280,3
100,34920,35640,2
100,35280,36000,2
100,35640,36360,3
100,36000,36720,3
100,36360,37080,2
100,36720,37440,2
100,37080,37800,3
100,37440,38160,3
100,37800,38520,2
100,38160,38880,2
100,38520,39240,2
100,38880,39600,3
100,39240,39960,3
100,39600,40320,2
100,39960,40680,3
100,40320,41040,3
100,40680,41400,2
100,41040,41760,2
100,41400,42120,3
100,41760,42480,3
100,42120,42840,2
100,42480,43200,2
100,42840,43560,2
100,43200,43920,3
100,43560,44280,3
100,43920,44640,2
100,44280,45000,2
100,44640,45360,3
100,45000,45720,3
100,45360,46080,2
100,45720,46440,2
100,46080,46800,3
100,46440,47160,3
100,46800,47520,2
100,47160,47880,2
100,47520,48240,3
100,47880,48600,3
100,48240,48960,2
100,48600,49320,2
100,48960,49680,3
100,49320,50040,3
100,49680,50400,2
100,50040,50760,2
100,50400,51120,3
100,50760,51480,3
100,51120,51840,2
100,51480,52200,2
100,51840,52560,3
100,52200,52920,3
100,52560,53280,2
100,52920,53640,3
100,53280,54000,3
100,53640,54360,2
100,54000,54720,2
100,54360,55080,3
100,54720,55440,3
100,55080,55800,2
100,55440,56160,2
100,55800,56520,3
100,56160,56880,3
100,56520,57240,2
100,56880,57600,2
100,57240,57960,3
100,57600,58320,3
100,57960,58680,2
100,58320,59040,2
100,58680,59400,3
100,59040,59760,3
100,59400,60120,2
100,59760,60480,2
100,60120,60840,3
100,60480,61200,3
100,60840,61560,2
100,61200,61920,2
100,61560,62280,3
100,61920,62640,3
100,62280,63000,2
100,62640,63360,2
100,63000,63720,3
100,63360,64080,3
100,63720,64440,2
100,64080,64800,2
100,64440,65160,2
100,64800,65520,3
100,65160,65880,3
100,65520,66240,2
100,65880,66600,2
100,66240,66960,3
100,66600,67320,3
100,66960,67680,2
100,67320,68040,3
100,67680,68400,3
100,68040,68760,2
100,68400,69120,2
100,68760,69480,2
100,69120,69840,3
100,69480,70200,3
100,69840,70560,2
100,70200,70920,2
100,70560,71280,3
100,70920,71640,3
100,71280,72000,2
100,71640,72360,2
100,72000,72720,3
100,72360,73080,3
100,72720,73440,2
100,73080,73800,2
100,73440,74160,2
100,73800,74520,3
100,74160,74880,3
100,74520,75240,2
100,74880,75600,2
100,75240,75960,3
100,75600,76320,3
100,75960,76680,2
100,76320,77040,2
100,76680,77400,3
100,77040,77760,3
100,77400,78120,2
100,77760,78480,2
100,78120,78840,3
100,78480,79200,3
100,78840,79560,2
100,79200,79920,2
100,79560,80280,2
100,79920,80640,3
100,80280,81000,3
100,80640,81360,2
100,81000,81720,2
100,81360,82080,3
100,81720,82440,3
100,82080,82800,2
100,82440,83160,2
100,82800,83520,3
100,83160,83880,3
100,83520,84240,2
100,83880,84600,2
100,84240,84960,2
100,84600,85320,3
100,84960,85680,3
100,85320,86040,2
100,85680,86400,2
100,86040,86760,2
100,86400,87120,3
100,86760,87480,3
100,87120,87840,2
100,87480,88200,2
100,87840,88560,3
100,88200,88920,3
100,88560,89280,2
100,88920,89640,2
100,89280,90000,3
100,89640,90360,3
100,90000,90720,2
100,90360,91080,2
100,90720,91440,2
100,91080,91800,3
100,91440,92160,3
100,91800,92520,2
100,92160,92880,2
100,92520,93240,2
100,92880,93600,3
100,93240,93960,3
100,93600,94320,2
100,93960,94680,2
100,94320,95040,3
100,94680,95400,3
100,95040,95760,2
100,95400,96120,2
100,95760,96480,3
100,96120,96840,3
100,96480,97200,2
100,96840,97560,2
100,97200,97920,2
100,97560,98280,3
100,97920,98640,3
100,98280,99000,2
100,98640,99360,2
100,99000,99720,3
100,99360,100080,3
100,99720,100440,2
100,100080,100800,3
100,100440,101160,3
100,100800,101520,2
100,101160,101880,2
100,101520,102240,3
100,101880,102600,3
100,102240,102960,2
100,102600,103320,2
100,102960,103680,3
100,103320,104040,3
100,103680,104400,2
100,104040,104760,2
100,104400,105120,3
100,104760,105480,3
100,105120,105840,2
100,105480,106200,2
100,105840,106560,2
100,106200,106920,3
100,106560,107280,3
100,106920,107640,2
100,107280,108000,2
100,107640,108360,3
100,108000,108720,3
100,108360,109080,2
100,108720,109440,2
100,109080,109800,3
100,109440,110160,3
100,109800,110520,2
100,110160,110880,2
100,110520,111240,2
100,110880,111600,3
100,111240,111960,3
100,111600,112320,2
100,111960,112680,2
100,112320,113040,3
100,112680,113400,3
100,113040,113760,2
100,113400,114120,2
100,113760,114480,3
100,114120,114840,3
100,114480,115200,2
100,114840,115560,3
100,115200,115920,3
100,115560,116280,2
100,115920,116640,2
100,116280,117000,3
100,116640,117360,3
100,117000,117720,2
100,117360,118080,3
100,117720,118440,3
100,118080,118800,2
100,118440,119160,2
100,118800,119520,3
100,119160,119880,3
100,119520,120240,2
100,119880,120600,2
100,120240,120960,2
100,120600,121320,3
100,120960,121680,3
100,121320,122040,2
100,121680,122400,2
100,122040,122760,3
100,122400,123120,3
100,122760,123480,2
100,123120,123840,2
100,123480,124200,2
100,123840,124560,3
100,124200,124920,3
100,124560,125280,2
100,124920,125640,2
100,125280,126000,3
100,125640,126360,3
100,126000,126720,2
100,126360,127080,3
100,126720,127440,3
100,127080,127800,2
100,127440,128160,3
100,127800,128520,3
100,128160,128880,2
100,128520,129240,3
100,128880,129600,3
100,129240,129960,2
100,129600,130320,3
100,129960,130680,3
100,130320,131040,2
100,130680,131400,3
100,131040,131760,3
100,131400,132120,2
100,131760,132480,3
100,132120,132840,3
100,132480,133200,3
100,132840,133560,3
100,133200,133920,2
100,133560,134280,3
100,133920,134640,3
100,134280,135000,3
100,134640,135360,3
100,135000,135720,2
100,135360,136080,3
100,135720,136440,3
100,136080,136800,2
100,136440,137160,2
100,136800,137520,3
100,137160,137880,3
100,137520,138240,2
100,137880,138600,3
100,138240,138960,3
100,138600,139320,2
100,138960,139680,2
100,139320,140040,3
100,139680,140400,3
100,140040,140760,2
100,140400,141120,2
100,140760,141480,3
100,141120,141840,3
100,141480,142200,2
100,141840,142560,3
100,142200,142920,3
100,142560,143280,3
100,142920,143640,3
100,143280,144000,2
100,143640,144360,3
100,144000,144720,3
100,144360,145080,2
100,144720,145440,3
100,145080,145800,3
100,145440,146160,2
100,145800,146520,3
100,146160,146880,3
100,146520,147240,2
100,146880,147600,3
100,147240,147960,3
100,147600,148320,2
100,147960,148680,3
100,148320,149040,3
100,148680,149400,2
100,149040,149760,2
100,149400,150120,3
100,149760,150480,3
100,150120,150840,2
100,150480,151200,3
100,150840,151560,3
100,151200,151920,2
100,151560,152280,3
100,151920,152640,3
100,152280,153000,2
100,152640,153360,2
100,153000,153720,3
100,153360,154080,3
100,153720,154440,2
100,154080,154800,3
100,154440,155160,3
100,154800,155520,2
100,155160,155880,3
100,155520,156240,3
100,155880,156600,2
100,156240,156960,3
100,156600,157320,3
100,156960,157680,2
100,157320,158040,3
100,157680,158400,3
100,158040,158760,3
100,158400,159120,3
100,158760,159480,3
100,159120,159840,3
100,159480,160200,2
100,159840,160560,3
100,160200,160920,3
100,160560,161280,3
100,160920,161640,3
100,161280,162000,2
100,161640,162360,3
100,162000,162720,3
100,162360,163080,2
100,162720,163440,3
100,163080,163800,3
100,163440,164160,2
100,163800,164520,3
100,164160,164880,3
100,164520,165240,2
100,164880,165600,3
100,165240,165960,3
100,165600,166320,3
100,165960,166680,3
100,166320,167040,2
100,166680,167400,3
100,167040,167760,3
100,167400,168120,2
100,167760,168480,2
100,168120,168840,3
100,168480,169200,3
100,168840,169560,2
100,169200,169920,3
100,169560,170280,3
100,169920,170640,2
100,170280,171000,2
100,170640,171360,2
100,171000,171720,3
100,171360,172080,3
100,171720,172440,2
100,172080,172800,3
100,172440,173160,3
100,172800,173520,2
100,173160,173880,2
100,173520,174240,3
100,173880,174600,3
100,174240,174960,2
100,174600,175320,2
100,174960,175680,3
100,175320,176040,3
100,175680,176400,2
100,176040,176760,3
100,176400,177120,3
100,176760,177480,2
100,177120,177840,3
100,177480,178200,3
100,177840,178560,2
100,178200,178920,3
100,178560,179280,3
100,178920,179640,2
100,179280,180000,3
100,179640,180360,3
100,180000,180720,3
100,180360,181080,3
100,180720,181440,2
100,181080,181800,2
100,181440,182160,3
100,181800,182520,3
100,182160,182880,2
100,182520,183240,3
100,182880,183600,3
100,183240,183960,2
100,183600,184320,2
100,183960,184680,3
100,184320,185040,3
100,184680,185400,2
100,185040,185760,2
100,185400,186120,2
100,185760,186480,3
100,186120,186840,3
100,186480,187200,2
100,186840,187560,2
100,187200,187920,3
100,187560,188280,3
100,187920,188640,2
100,188280,189000,2
100,188640,189360,3
100,189000,189720,3
100,189360,190080,2
100,189720,190440,2
100,190080,190800,2
100,190440,191160,3
100,190800,191520,3
100,191160,191880,2
100,191520,192240,2
100,191880,192600,3
100,192240,192960,3
100,192600,193320,2
100,192960,193680,2
100,193320,194040,3
100,193680,194400,3
100,194040,194760,2
100,194400,195120,2
100,194760,195480,3
100,195120,195840,3
100,195480,196200,2
100,195840,196560,2
100,196200,196920,3
100,196560,197280,3
100,196920,197640,2
100,197280,198000,3
100,197640,198360,3
100,198000,198720,2
100,198360,199080,3
100,198720,199440,3
100,199080,199800,2
100,199440,200160,2
100,199800,200520,3
100,200160,200880,3
100,200520,201240,2
100,200880,201600,3
100,201240,201960,3
100,201600,202320,2
100,201960,202680,3
100,202320,203040,3
100,202680,203400,2
100,203040,203760,3
100,203400,204120,3
100,203760,204480,2
100,204120,204840,2
100,204480,205200,3
100,204840,205560,3
100,205200,205920,2
100,205560,206280,2
100,205920,206640,3
100,206280,207000,3
100,206640,207360,2
100,207000,207720,2
100,207360,208080,3
100,207720,208440,3
100,208080,208800,2
100,208440,209160,3
100,208800,209520,3
100,209160,209880,2
100,209520,210240,2
100,209880,210600,3
100,210240,210960,3
100,210600,211320,2
100,210960,211680,3
100,211320,212040,3
100,211680,212400,2
100,212040,212760,2
100,212400,213120,3
100,212760,213480,3
100,213120,213840,2
100,213480,214200,3
100,213840,214560,3
100,214200,214920,2
100,214560,215280,2
100,214920,215640,3
100,215280,216000,3
100,215640,216360,2
100,216000,216720,3
100,216360,217080,3
100,216720,217440,2
100,217080,217800,2
100,217440,218160,3
100,217800,218520,3
100,218160,218880,2
100,218520,219240,2
100,218880,219600,3
100,219240,219960,3
100,219600,220320,2
100,219960,220680,2
100,220320,221040,3
100,220680,221400,3
100,221040,221760,2
100,221400,222120,3
100,221760,222480,3
100,222120,222840,2
100,222480,223200,2
100,222840,223560,3
100,223200,223920,3
100,223560,224280,2
100,223920,224640,3
100,224280,225000,3
100,224640,225360,2
100,225000,225720,2
100,225360,226080,3
100,225720,226440,3
100,226080,226800,2
100,226440,227160,3
100,226800,227520,3
100,227160,227880,2
100,227520,228240,3
100,227880,228600,3
100,228240,228960,2
100,228600,229320,2
100,228960,229680,3
100,229320,230040,3
100,229680,230400,2
100,230040,230760,2
100,230400,231120,3
100,230760,231480,3
100,231120,231840,2
100,231480,232200,3
100,231840,232560,3
100,232200,232920,2
100,232560,233280,2
100,232920,233640,3
100,233280,234000,3
100,233640,234360,2
100,234000,234720,3
100,234360,235080,3
100,234720,235440,2
100,235080,235800,2
100,235440,236160,3
100,235800,236520,3
100,236160,236880,2
100,236520,237240,3
100,236880,237600,3
100,237240,237960,2
100,237600,238320,2
100,237960,238680,3
100,238320,239040,3
100,238680,239400,2
100,239040,239760,3
100,239400,240120,3
100,239760,240480,2
100,240120,240840,3
100,240480,241200,3
100,240840,241560,2
100,241200,241920,3
100,241560,242280,3
100,241920,242640,3
100,242280,243000,3
100,242640,243360,2
100,243000,243720,3
100,243360,244080,3
100,243720,244440,2
100,244080,244800,3
100,244440,245160,3
100,244800,245520,3
100,245160,245880,3
100,245520,246240,2
100,245880,246600,2
100,246240,246960,3
100,246600,247320,3
100,246960,247680,2
100,247320,248040,3
100,247680,248400,3
100,248040,248760,2
100,248400,249120,2
100,248760,249480,3
100,249120,249840,3
100,249480,250200,2
100,249840,250560,3
100,250200,250920,3
100,250560,251280,2
100,250920,251640,2
100,251280,252000,3
100,251640,252360,3
100,252000,252720,2
100,252360,253080,2
100,252720,253440,2
100,253080,253800,3
100,253440,254160,3
100,253800,254520,2
100,254160,254880,2
100,254520,255240,3
100,254880,255600,3
100,255240,255960,2
100,255600,256320,3
100,255960,256680,3
100,256320,257040,2
100,256680,257400,2
100,257040,257760,3
100,257400,258120,3
100,257760,258480,3
100,258120,258840,3
100,258480,259200,2
100,258840,259560,3
100,259200,259920,3
100,259560,260280,2
100,259920,260640,3
100,260280,261000,3
100,260640,261360,2
100,261000,261720,3
100,261360,262080,3
100,261720,262440,2
100,262080,262800,3
100,262440,263160,3
100,262800,263520,2
100,263160,263880,2
100,263520,264240,3
100,263880,264600,3
100,264240,264960,2
100,264600,265320,2
100,264960,265680,3
100,265320,266040,3
100,265680,266400,2
100,266040,266760,2
100,266400,267120,3
100,266760,267480,3
100,267120,267840,2
100,267480,268200,2
100,267840,268560,3
100,268200,268920,3
100,268560,269280,2
100,268920,269640,2
100,269280,270000,3
100,269640,270360,3
100,270000,270720,2
100,270360,271080,2
100,270720,271440,3
100,271080,271800,3
100,271440,272160,2
100,271800,272520,2
100,272160,272880,3
100,272520,273240,3
100,272880,273600,2
100,273240,273960,2
100,273600,274320,3
100,273960,274680,3
100,274320,275040,2
100,274680,275400,2
100,275040,275760,3
100,275400,276120,3
100,275760,276480,2
100,276120,276840,3
100,276480,277200,3
100,276840,277560,2
100,277200,277920,2
100,277560,278280,3
100,277920,278640,3
100,278280,279000,2
100,278640,279360,2
100,279000,279720,3
100,279360,280080,3
100,279720,280440,2
100,280080,280800,2
100,280440,281160,3
100,280800,281520,3
100,281160,281880,2
100,281520,282240,3
100,281880,282600,3
100,282240,282960,2
100,282600,283320,2
100,282960,283680,3
100,283320,284040,3
100,283680,284400,2
100,284040,284760,2
100,284400,285120,3
100,284760,285480,3
100,285120,285840,2
100,285480,286200,2
100,285840,286560,3
100,286200,286920,3
100,286560,287280,2
100,286920,287640,2
100,287280,288000,3
100,287640,288360,3
100,288000,288720,2
100,288360,289080,3
100,288720,289440,3
100,289080,289800,2
100,289440,290160,2
100,289800,290520,2
100,290160,290880,3
100,290520,291240,3
100,290880,291600,2
100,291240,291960,2
100,291600,292320,3
100,291960,292680,3
100,292320,293040,2
100,292680,293400,2
100,293040,293760,3
100,293400,294120,3
100,293760,294480,2
100,294120,294840,2
100,294480,295200,3
100,294840,295560,3
100,295200,295920,2
100,295560,296280,2
100,295920,296640,3
100,296280,297000,3
100,296640,297360,2
100,297000,297720,2
100,297360,298080,3
100,297720,298440,3
100,298080,298800,2
100,298440,299160,2
100,298800,299520,3
100,299160,299880,3
100,299520,300240,2
100,299880,300600,2
100,300240,300960,3
100,300600,301320,3
100,300960,301680,2
100,301320,302040,2
100,301680,302400,3
100,302040,302760,3
100,302400,303120,2
100,302760,303480,2
100,303120,303840,3
100,303480,304200,3
100,303840,304560,2
100,304200,304920,2
100,304560,305280,3
100,304920,305640,3
100,305280,306000,2
100,305640,306360,3
100,306000,306720,3
100,306360,307080,2
100,306720,307440,2
100,307080,307800,3
100,307440,308160,3
100,307800,308520,2
100,308160,308880,2
100,308520,309240,3
100,308880,309600,3
100,309240,309960,2
100,309600,310320,2
100,309960,310680,3
100,310320,311040,3
100,310680,311400,2
100,311040,311760,2
100,311400,312120,3
100,311760,312480,3
100,312120,312840,3
100,312480,313200,3
100,312840,313560,2
100,313200,313920,2
100,313560,314280,2
100,313920,314640,2
100,314280,315000,3
100,314640,315360,3
100,315000,315720,2
100,315360,316080,2
100,315720,316440,3
100,316080,316800,3
100,316440,317160,2
100,316800,317520,2
100,317160,317880,3
100,317520,318240,3
100,317880,318600,2
100,318240,318960,2
100,318600,319320,3
100,318960,319680,3
100,319320,320040,2
100,319680,320400,2
100,320040,320760,2
100,320400,321120,3
100,320760,321480,3
100,321120,321840,2
100,321480,322200,2
100,321840,322560,2
100,322200,322920,3
100,322560,323280,3
100,322920,323640,2
100,323280,324000,2
100,323640,324360,3
100,324000,324720,3
100,324360,325080,2
100,324720,325440,2
100,325080,325800,3
100,325440,326160,3
100,325800,326520,2
100,326160,326880,2
100,326520,327240,2
100,326880,327600,3
100,327240,327960,3
100,327600,328320,2
100,327960,328680,2
100,328320,329040,2
100,328680,329400,3
100,329040,329760,3
100,329400,330120,2
100,329760,330480,2
100,330120,330840,3
100,330480,331200,3
100,330840,331560,2
100,331200,331920,2
100,331560,332280,3
100,331920,332640,3
100,332280,333000,2
100,332640,333360,2
100,333000,333720,2
100,333360,334080,3
100,333720,334440,3
100,334080,334800,2
100,334440,335160,2
100,334800,335520,2
100,335160,335880,3
100,335520,336240,3
100,335880,336600,2
100,336240,336960,2
100,336600,337320,3
100,336960,337680,3
100,337320,338040,2
100,337680,338400,2
100,338040,338760,3
100,338400,339120,3
100,338760,339480,2
100,339120,339840,2
100,339480,340200,2
100,339840,340560,3
100,340200,340920,3
100,340560,341280,2
100,340920,341640,2
100,341280,342000,3
100,341640,342360,3
100,342000,342720,2
100,342360,343080,2
100,342720,343440,3
100,343080,343800,3
100,343440,344160,2
100,343800,344520,2
100,344160,344880,3
100,344520,345240,3
100,344880,345600,2
100,345240,345960,2
100,345600,346320,3
100,345960,346680,3
100,346320,347040,2
100,346680,347400,2
100,347040,347760,3
100,347400,348120,3
100,347760,348480,2
100,348120,348840,2
100,348480,349200,2
100,348840,349560,3
100,349200,349920,3
100,349560,350280,2
100,349920,350640,2
100,350280,351000,3
100,350640,351360,3
100,351000,351720,2
100,351360,352080,2
100,351720,352440,3
100,352080,352800,3
100,352440,353160,2
100,352800,353520,2
100,353160,353880,3
100,353520,354240,3
100,353880,354600,2
100,354240,354960,2
100,354600,355320,3
100,354960,355680,3
100,355320,356040,2
100,355680,356400,2
100,356040,356760,3
100,356400,357120,3
100,356760,357480,2
100,357120,357840,2
100,357480,358200,3
100,357840,358560,3
100,358200,358920,2
100,358560,359280,2
100,358920,359640,3
100,359280,360000,3
100,359640,360360,2
100,360000,360720,2
100,360360,361080,3
100,360720,361440,3
100,361080,361800,2
100,361440,362160,2
100,361800,362520,3
100,362160,362880,3
100,362520,363240,2
100,362880,363600,2
100,363240,363960,3
100,363600,364320,3
100,363960,364680,2
100,364320,365040,3
100,364680,365400,3
100,365040,365760,2
100,365400,366120,2
100,365760,366480,2
100,366120,366840,3
100,366480,367200,3
100,366840,367560,2
100,367200,367920,2
100,367560,368280,3
100,367920,368640,3
100,368280,369000,2
100,368640,369360,2
100,369000,369720,3
100,369360,370080,3
100,369720,370440,2
100,370080,370800,2
100,370440,371160,3
100,370800,371520,3
100,371160,371880,2
100,371520,372240,2
100,371880,372600,3
100,372240,372960,3
100,372600,373320,2
100,372960,373680,2
100,373320,374040,3
100,373680,374400,3
100,374040,374760,2
100,374400,375120,2
100,374760,375480,3
100,375120,375840,3
100,375480,376200,2
100,375840,376560,2
100,376200,376920,3
100,376560,377280,3
100,376920,377640,2
100,377280,378000,2
100,377640,378360,3
100,378000,378720,3
100,378360,379080,2
100,378720,379440,3
100,379080,379800,3
100,379440,380160,2
100,379800,380520,2
100,380160,380880,2
100,380520,381240,3
100,380880,381600,3
100,381240,381960,2
100,381600,382320,3
100,381960,382680,3
100,382320,383040,2
100,382680,383400,2
100,383040,383760,3
100,383400,384120,3
100,383760,384480,2
100,384120,384840,2
100,384480,385200,2
100,384840,385560,3
100,385200,385920,3
100,385560,386280,2
100,385920,386640,2
100,386280,387000,3
100,386640,387360,3
100,387000,387720,2
100,387360,388080,2
100,387720,388440,3
100,388080,388800,3
100,388440,389160,2
100,388800,389520,2
100,389160,389880,3
100,389520,390240,3
100,389880,390600,2
100,390240,390960,2
100,390600,391320,2
100,390960,391680,3
100,391320,392040,3
100,391680,392400,2
100,392040,392760,2
100,392400,393120,3
100,392760,393480,3
100,393120,393840,2
100,393480,394200,2
100,393840,394560,3
100,394200,394920,3
100,394560,395280,2
100,394920,395640,2
100,395280,396000,3
100,395640,396360,3
100,396000,396720,2
100,396360,397080,2
100,396720,397440,3
100,397080,397800,3
100,397440,398160,2
100,397800,398520,2
100,398160,398880,3
100,398520,399240,3
100,398880,399600,2
100,399240,399960,2
100,399600,400320,2
100,399960,400680,3
100,400320,401040,3
100,400680,401400,2
100,401040,401760,3
100,401400,402120,3
100,401760,402480,2
100,402120,402840,2
100,402480,403200,2
100,402840,403560,3
100,403200,403920,3
100,403560,404280,2
100,403920,404640,2
100,404280,405000,3
100,404640,405360,3
100,405000,405720,2
100,405360,406080,2
100,405720,406440,3
100,406080,406800,3
100,406440,407160,2
100,406800,407520,2
100,407160,407880,3
100,407520,408240,3
100,407880,408600,2
100,408240,408960,2
100,408600,409320,3
100,408960,409680,3
100,409320,410040,2
100,409680,410400,2
100,410040,410760,2
100,410400,411120,3
100,410760,411480,3
100,411120,411840,2
100,411480,412200,2
100,411840,412560,3
100,412200,412920,3
100,412560,413280,2
100,412920,413640,2
100,413280,414000,3
100,413640,414360,3
100,414000,414720,2
100,414360,415080,2
100,414720,415440,3
100,415080,415800,3
100,415440,416160,2
100,415800,416520,2
100,416160,416880,3
100,416520,417240,3
100,416880,417600,2
100,417240,417960,2
100,417600,418320,3
100,417960,418680,3
100,418320,419040,2
100,418680,419400,2
100,419040,419760,3
100,419400,420120,3
100,419760,420480,2
100,420120,420840,2
100,420480,421200,3
100,420840,421560,3
100,421200,421920,2
100,421560,422280,2
100,421920,422640,3
100,422280,423000,3
100,422640,423360,2
100,423000,423720,2
100,423360,424080,3
100,423720,424440,3
100,424080,424800,2
100,424440,425160,2
100,424800,425520,3
100,425160,425880,3
100,425520,426240,2
100,425880,426600,2
100,426240,426960,3
100,426600,427320,3
100,426960,427680,2
100,427320,428040,2
100,427680,428400,2
100,428040,428760,3
100,428400,429120,3
100,428760,429480,2
100,429120,429840,2
100,429480,430200,3
100,429840,430560,3
100,430200,430920,2
100,430560,431280,2
100,430920,431640,3
100,431280,432000,3
100,431640,432360,2
100,432000,432720,2
100,432360,433080,2
100,432720,433440,3
100,433080,433800,3
100,433440,434160,2
100,433800,434520,3
100,434160,434880,3
100,434520,435240,2
100,434880,435600,2
100,435240,435960,3
100,435600,436320,3
100,435960,436680,2
100,436320,437040,2
100,436680,437400,2
100,437040,437760,3
100,437400,438120,3
100,437760,438480,2
100,438120,438840,2
100,438480,439200,3
100,438840,439560,3
100,439200,439920,2
100,439560,440280,2
100,439920,440640,3
100,440280,441000,3
100,440640,441360,2
100,441000,441720,2
100,441360,442080,2
100,441720,442440,3
100,442080,442800,3
100,442440,443160,2
100,442800,443520,2
100,443160,443880,2
100,443520,444240,3
100,443880,444600,3
100,444240,444960,2
100,444600,445320,2
100,444960,445680,3
100,445320,446040,3
100,445680,446400,2
100,446040,446760,2
100,446400,447120,3
100,446760,447480,3
100,447120,447840,2
100,447480,448200,2
100,447840,448560,3
100,448200,448920,3
100,448560,449280,2
100,448920,449640,2
100,449280,450000,2
100,449640,450360,3
100,450000,450720,3
100,450360,451080,2
100,450720,451440,2
100,451080,451800,2
100,451440,452160,3
100,451800,452520,3
100,452160,452880,2
100,452520,453240,2
100,452880,453600,3
100,453240,453960,3
100,453600,454320,2
100,453960,454680,3
100,454320,455040,3
100,454680,455400,2
100,455040,455760,2
100,455400,456120,2
100,455760,456480,2
100,456120,456840,3
100,456480,457200,3
100,456840,457560,2
100,457200,457920,2
100,457560,458280,3
100,457920,458640,3
100,458280,459000,2
100,458640,459360,2
100,459000,459720,3
100,459360,460080,3
100,459720,460440,2
100,460080,460800,2
100,460440,461160,3
100,460800,461520,3
100,461160,461880,2
100,461520,462240,2
100,461880,462600,2
100,462240,462960,3
100,462600,463320,3
100,462960,463680,2
100,463320,464040,2
100,463680,464400,3
100,464040,464760,3
100,464400,465120,2
100,464760,465480,2
100,465120,465840,3
100,465480,466200,3
100,465840,466560,2
100,466200,466920,2
100,466560,467280,2
100,466920,467640,3
100,467280,468000,3
100,467640,468360,2
100,468000,468720,2
100,468360,469080,3
100,468720,469440,3
100,469080,469800,2
100,469440,470160,2
100,469800,470520,2
100,470160,470880,3
100,470520,471240,3
100,470880,471600,2
100,471240,471960,2
100,471600,472320,3
100,471960,472680,3
100,472320,473040,2
100,472680,473400,2
100,473040,473760,2
100,473400,474120,3
100,473760,474480,3
100,474120,474840,2
100,474480,475200,2
100,474840,475560,3
100,475200,475920,3
100,475560,476280,2
100,475920,476640,2
100,476280,477000,2
100,476640,477360,3
100,477000,477720,3
100,477360,478080,2
100,477720,478440,2
100,478080,478800,3
100,478440,479160,3
100,478800,479520,2
100,479160,479880,2
100,479520,480240,3
100,479880,480600,3
100,480240,480960,2
100,480600,481320,2
100,480960,481680,3
100,481320,482040,3
100,481680,482400,2
100,482040,482760,2
100,482400,483120,3
100,482760,483480,3
100,483120,483840,2
100,483480,484200,2
100,483840,484560,3
100,484200,484920,3
100,484560,485280,2
100,484920,485640,2
100,485280,486000,3
100,485640,486360,3
100,486000,486720,2
100,486360,487080,2
100,486720,487440,3
100,487080,487800,3
100,487440,488160,2
100,487800,488520,2
100,488160,488880,2
100,488520,489240,3
100,488880,489600,3
100,489240,489960,2
100,489600,490320,2
100,489960,490680,2
100,490320,491040,3
100,490680,491400,3
100,491040,491760,2
100,491400,492120,2
100,491760,492480,3
100,492120,492840,3
100,492480,493200,2
100,492840,493560,2
100,493200,493920,3
100,493560,494280,3
100,493920,494640,2
100,494280,495000,2
100,494640,495360,2
100,495000,495720,3
100,495360,496080,3
100,495720,496440,2
100,496080,496800,3
100,496440,497160,3
100,496800,497520,2
100,497160,497880,2
100,497520,498240,3
100,497880,498600,3
100,498240,498960,2
100,498600,499320,2
100,498960,499680,2
100,499320,500040,3
100,499680,500400,3
100,500040,500760,2
100,500400,501120,2
100,500760,501480,3
100,501120,501840,3
100,501480,502200,2
100,501840,502560,2
100,502200,502920,3
100,502560,503280,3
100,502920,503640,2
100,503280,504000,2
100,503640,504360,2
100,504000,504720,3
100,504360,505080,3
100,504720,505440,2
100,505080,505800,2
100,505440,506160,3
100,505800,506520,3
100,506160,506880,2
100,506520,507240,2
100,506880,507600,3
100,507240,507960,3
100,507600,508320,2
100,507960,508680,2
100,508320,509040,3
100,508680,509400,3
100,509040,509760,2
100,509400,510120,2
100,509760,510480,2
100,510120,510840,3
100,510480,511200,3
100,510840,511560,2
100,511200,511920,2
100,511560,512280,3
100,511920,512640,3
100,512280,513000,2
100,512640,513360,2
100,513000,513720,3
100,513360,514080,3
100,513720,514440,2
100,514080,514800,2
100,514440,515160,2
100,514800,515520,3
100,515160,515880,3
100,515520,516240,2
100,515880,516600,2
100,516240,516960,2
100,516600,517320,3
100,516960,517680,3
100,517320,518040,2
100,517680,518400,2
100,518040,518760,3
100,518400,519120,3
100,518760,519480,2
100,519120,519840,2
100,519480,520200,3
100,519840,520560,3
100,520200,520920,2
100,520560,521280,2
100,520920,521640,3
100,521280,522000,3
100,521640,522360,2
100,522000,522720,2
100,522360,523080,2
100,522720,523440,3
100,523080,523800,3
100,523440,524160,2
100,523800,524520,2
100,524160,524880,2
100,524520,525240,3
100,524880,525600,3
100,525240,525960,2
100,525600,526320,2
100,525960,526680,3
100,526320,527040,3
100,526680,527400,2
100,527040,527760,2
100,527400,528120,3
100,527760,528480,3
100,528120,528840,2
100,528480,529200,2
100,528840,529560,2
100,529200,529920,3
100,529560,530280,3
100,529920,530640,2
100,530280,531000,2
100,530640,531360,3
100,531000,531720,3
100,531360,532080,2
100,531720,532440,2
100,532080,532800,2
100,532440,533160,3
100,532800,533520,3
100,533160,533880,2
100,533520,534240,2
100,533880,534600,3
100,534240,534960,3
100,534600,535320,2
100,534960,535680,2
100,535320,536040,2
100,535680,536400,3
100,536040,536760,3
100,536400,537120,2
100,536760,537480,2
100,537120,537840,3
100,537480,538200,3
100,537840,538560,2
100,538200,538920,2
100,538560,539280,3
100,538920,539640,3
100,539280,540000,2
100,539640,540360,2
100,540000,540720,2
100,540360,541080,3
100,540720,541440,3
100,541080,541800,2
100,541440,542160,2
100,541800,542520,2
100,542160,542880,3
100,542520,543240,3
100,542880,543600,2
100,543240,543960,2
100,543600,544320,3
100,543960,544680,3
100,544320,545040,2
100,544680,545400,2
100,545040,545760,3
100,545400,546120,3
100,545760,546480,2
100,546120,546840,3
100,546480,547200,3
100,546840,547560,2
100,547200,547920,2
100,547560,548280,2
100,547920,548640,3
100,548280,549000,3
100,548640,549360,2
100,549000,549720,2
100,549360,550080,3
100,549720,550440,3
100,550080,550800,2
100,550440,551160,2
100,550800,551520,2
100,551160,551880,3
100,551520,552240,3
100,551880,552600,2
100,552240,552960,2
100,552600,553320,3
100,552960,553680,3
100,553320,554040,2
100,553680,554400,2
100,554040,554760,3
100,554400,555120,3
100,554760,555480,2
100,555120,555840,2
100,555480,556200,2
100,555840,556560,3
100,556200,556920,3
100,556560,557280,2
100,556920,557640,2
100,557280,558000,3
100,557640,558360,3
100,558000,558720,2
100,558360,559080,2
100,558720,559440,3
100,559080,559800,3
100,559440,560160,2
100,559800,560520,2
100,560160,560880,3
100,560520,561240,3
100,560880,561600,2
100,561240,561960,2
100,561600,562320,3
100,561960,562680,3
100,562320,563040,2
100,562680,563400,2
100,563040,563760,3
100,563400,564120,3
100,563760,564480,2
100,564120,564840,2
100,564480,565200,3
100,564840,565560,3
100,565200,565920,2
100,565560,566280,3
100,565920,566640,3
100,566280,567000,2
100,566640,567360,2
100,567000,567720,2
100,567360,568080,3
100,567720,568440,3
100,568080,568800,2
100,568440,569160,2
100,568800,569520,3
100,569160,569880,3
100,569520,570240,2
100,569880,570600,2
100,570240,570960,3
100,570600,571320,3
100,570960,571680,2
100,571320,572040,2
100,571680,572400,2
100,572040,572760,3
100,572400,573120,3
100,572760,573480,2
100,573120,573840,2
100,573480,574200,3
100,573840,574560,3
100,574200,574920,2
100,574560,575280,2
100,574920,575640,2
100,575280,576000,3
100,575640,576360,3
100,576000,576720,2
100,576360,577080,2
100,576720,577440,2
100,577080,577800,3
100,577440,578160,3
100,577800,578520,2
100,578160,578880,2
100,578520,579240,3
100,578880,579600,3
100,579240,579960,2
100,579600,580320,2
100,579960,580680,3
100,580320,581040,3
100,580680,581400,2
100,581040,581760,2
100,581400,582120,3
100,581760,582480,3
100,582120,582840,2
100,582480,583200,2
100,582840,583560,3
100,583200,583920,3
100,583560,584280,2
100,583920,584640,3
100,584280,585000,3
100,584640,585360,2
100,585000,585720,2
100,585360,586080,3
100,585720,586440,3
100,586080,586800,3
100,586440,587160,3
100,586800,587520,2
100,587160,587880,3
100,587520,588240,3
100,587880,588600,2
100,588240,588960,3
100,588600,589320,3
100,588960,589680,2
100,589320,590040,2
100,589680,590400,3
100,590040,590760,3
100,590400,591120,2
100,590760,591480,3
100,591120,591840,3
100,591480,592200,2
100,591840,592560,2
100,592200,592920,3
100,592560,593280,3
100,592920,593640,2
100,593280,594000,3
100,593640,594360,3
100,594000,594720,2
100,594360,595080,2
100,594720,595440,3
100,595080,595800,3
100,595440,596160,2
100,595800,596520,2
100,596160,596880,3
100,596520,597240,3
100,596880,597600,2
100,597240,597960,3
100,597600,598320,3
100,597960,598680,2
100,598320,599040,3
100,598680,599400,3
100,599040,599760,3
100,599400,600120,3
100,599760,600480,2
100,600120,600840,3
100,600480,601200,3
100,600840,601560,3
100,601200,601920,3
100,601560,602280,2
100,601920,602640,3
100,602280,603000,3
100,602640,603360,2
100,603000,603720,2
100,603360,604080,3
100,603720,604440,3
100,604080,604800,2
100,604440,605160,3
100,604800,605520,3
100,605160,605880,2
100,605520,606240,2
100,605880,606600,3
100,606240,606960,3
100,606600,607320,2
100,606960,607680,2
100,607320,608040,2
100,607680,608400,3
100,608040,608760,3
100,608400,609120,2
100,608760,609480,3
100,609120,609840,3
100,609480,610200,2
100,609840,610560,3
100,610200,610920,3
100,610560,611280,2
100,610920,611640,2
100,611280,612000,3
100,611640,612360,3
100,612000,612720,2
100,612360,613080,2
100,612720,613440,3
100,613080,613800,3
100,613440,614160,2
100,613800,614520,2
100,614160,614880,3
100,614520,615240,3
100,614880,615600,2
100,615240,615960,2
100,615600,616320,3
100,615960,616680,3
100,616320,617040,2
100,616680,617400,3
100,617040,617760,3
100,617400,618120,2
100,617760,618480,2
100,618120,618840,3
100,618480,619200,3
100,618840,619560,2
100,619200,619920,2
100,619560,620280,3
100,619920,620640,3
100,620280,621000,2
100,620640,621360,2
100,621000,621720,3
100,621360,622080,3
100,621720,622440,2
100,622080,622800,2
100,622440,623160,3
100,622800,623520,3
100,623160,623880,2
100,623520,624240,3
100,623880,624600,3
100,624240,624960,2
100,624600,625320,3
100,624960,625680,3
100,625320,626040,2
100,625680,626400,2
100,626040,626760,3
100,626400,627120,3
100,626760,627480,2
100,627120,627840,3
100,627480,628200,3
100,627840,628560,2
100,628200,628920,2
100,628560,629280,3
100,628920,629640,3
100,629280,630000,2
100,629640,630360,3
100,630000,630720,3
100,630360,631080,2
100,630720,631440,3
100,631080,631800,3
100,631440,632160,3
100,631800,632520,3
100,632160,632880,2
100,632520,633240,3
100,632880,633600,3
100,633240,633960,2
100,633600,634320,3
100,633960,634680,3
100,634320,635040,2
100,634680,635400,3
100,635040,635760,3
100,635400,636120,2
100,635760,636480,2
100,636120,636840,3
100,636480,637200,3
100,636840,637560,2
100,637200,637920,2
100,637560,638280,2
100,637920,638640,3
100,638280,639000,3
100,638640,639360,2
100,639000,639720,2
100,639360,640080,3
100,639720,640440,3
100,640080,640800,2
100,640440,641160,2
100,640800,641520,3
100,641160,641880,3
100,641520,642240,2
100,641880,642600,2
100,642240,642960,3
100,642600,643320,3
100,642960,643680,2
100,643320,644040,3
100,643680,644400,3
100,644040,644760,2
100,644400,645120,3
100,644760,645480,3
100,645120,645840,2
100,645480,646200,3
100,645840,646560,3
100,646200,646920,3
100,646560,647280,3
100,646920,647640,2
100,647280,648000,3
100,647640,648360,3
100,648000,648720,2
100,648360,649080,3
100,648720,649440,3
100,649080,649800,3
101,0,720,3
101,360,1080,3
101,720,1440,2
101,1080,1800,2
101,1440,2160,2
101,1800,2520,2
101,2160,2880,2
101,2520,3240,2
101,2880,3600,2
101,3240,3960,2
101,3600,4320,3
101,3960,4680,3
101,4320,5040,2
101,4680,5400,2
101,5040,5760,2
101,5400,6120,2
101,5760,6480,2
101,6120,6840,3
101,6480,7200,3
101,6840,7560,2
101,7200,7920,2
101,7560,8280,2
101,7920,8640,2
101,8280,9000,2
101,8640,9360,3
101,9000,9720,3
101,9360,10080,2
101,9720,10440,2
101,10080,10800,2
101,10440,11160,2
101,10800,11520,3
101,11160,11880,3
101,11520,12240,2
101,11880,12600,2
101,12240,12960,3
101,12600,13320,3
101,12960,13680,2
101,13320,14040,3
101,13680,14400,3
101,14040,14760,2
101,14400,15120,2
101,14760,15480,3
101,15120,15840,3
101,15480,16200,2
101,15840,16560,2
101,16200,16920,2
101,16560,17280,3
101,16920,17640,3
101,17280,18000,2
101,17640,18360,2
101,18000,18720,3
101,18360,19080,3
101,18720,19440,2
101,19080,19800,2
101,19440,20160,2
101,19800,20520,3
101,20160,20880,3
101,20520,21240,2
101,20880,21600,2
101,21240,21960,2
101,21600,22320,2
101,21960,22680,2
101,22320,23040,2
101,22680,23400,2
101,23040,23760,2
101,23400,24120,3
101,23760,24480,3
101,24120,24840,2
101,24480,25200,2
101,24840,25560,2
101,25200,25920,2
101,25560,26280,2
101,25920,26640,3
101,26280,27000,3
101,26640,27360,2
101,27000,27720,2
101,27360,28080,2
101,27720,28440,2
101,28080,28800,2
101,28440,29160,3
101,28800,29520,3
101,29160,29880,2
101,29520,30240,2
101,29880,30600,2
101,30240,30960,2
101,30600,31320,3
101,30960,31680,3
101,31320,32040,2
101,31680,32400,2
101,32040,32760,2
101,32400,33120,2
101,32760,33480,3
101,33120,33840,3
101,33480,34200,2
101,33840,34560,2
101,34200,34920,2
101,34560,35280,2
101,34920,35640,3
101,35280,36000,3
101,35640,36360,2
101,36000,36720,2
101,36360,37080,2
101,36720,37440,2
101,37080,37800,3
101,37440,38160,3
101,37800,38520,2
101,38160,38880,2
101,38520,39240,2
101,38880,39600,2
101,39240,39960,2
101,39600,40320,2
101,39960,40680,3
101,40320,41040,3
101,40680,41400,2
101,41040,41760,2
101,41400,42120,2
101,41760,42480,3
101,42120,42840,3
101,42480,43200,2
101,42840,43560,3
101,43200,43920,3
101,43560,44280,2
101,43920,44640,2
101,44280,45000,3
101,44640,45360,3
101,45000,45720,2
101,45360,46080,2
101,45720,46440,2
101,46080,46800,3
101,46440,47160,3
101,46800,47520,2
101,47160,47880,2
101,47520,48240,3
101,47880,48600,3
101,48240,48960,2
101,48600,49320,2
101,48960,49680,2
101,49320,50040,3
101,49680,50400,3
101,50040,50760,2
101,50400,51120,3
101,50760,51480,3
101,51120,51840,2
101,51480,52200,2
101,51840,52560,3
101,52200,52920,3
101,52560,53280,2
101,52920,53640,2
101,53280,54000,3
101,53640,54360,3
101,54000,54720,2
101,54360,55080,2
101,54720,55440,3
101,55080,55800,3
101,55440,56160,2
101,55800,56520,2
101,56160,56880,2
101,56520,57240,2
101,56880,57600,3
101,57240,57960,3
101,57600,58320,2
101,57960,58680,2
101,58320,59040,2
101,58680,59400,2
101,59040,59760,2
101,59400,60120,2
101,59760,60480,3
101,60120,60840,3
101,60480,61200,2
101,60840,61560,2
101,61200,61920,2
101,61560,62280,2
101,61920,62640,2
101,62280,63000,3
101,62640,63360,3
101,63000,63720,2
101,63360,64080,2
101,63720,64440,2
101,64080,64800,2
101,64440,65160,2
101,64800,65520,2
101,65160,65880,2
101,65520,66240,3
101,65880,66600,3
101,66240,66960,2
101,66600,67320,2
101,66960,67680,2
101,67320,68040,2
101,67680,68400,2
101,68040,68760,2
101,68400,69120,2
101,68760,69480,3
101,69120,69840,3
101,69480,70200,2
101,69840,70560,2
101,70200,70920,2
101,70560,71280,2
101,70920,71640,2
101,71280,72000,2
101,71640,72360,3
101,72000,72720,3
101,72360,73080,2
101,72720,73440,2
101,73080,73800,2
101,73440,74160,2
101,73800,74520,2
101,74160,74880,2
101,74520,75240,3
101,74880,75600,3
101,75240,75960,2
101,75600,76320,2
101,75960,76680,2
101,76320,77040,2
101,76680,77400,2
101,77040,77760,2
101,77400,78120,2
101,77760,78480,3
101,78120,78840,3
101,78480,79200,2
101,78840,79560,2
101,79200,79920,2
101,79560,80280,2
101,79920,80640,2
101,80280,81000,2
101,80640,81360,2
101,81000,81720,2
101,81360,82080,2
101,81720,82440,2
101,82080,82800,3
101,82440,83160,3
101,82800,83520,2
101,83160,83880,2
101,83520,84240,2
101,83880,84600,2
101,84240,84960,2
101,84600,85320,2
101,84960,85680,2
101,85320,86040,2
101,85680,86400,3
101,86040,86760,3
101,86400,87120,2
101,86760,87480,2
101,87120,87840,2
101,87480,88200,2
101,87840,88560,2
101,88200,88920,2
101,88560,89280,2
101,88920,89640,2
101,89280,90000,2
101,89640,90360,2
101,90000,90720,2
101,90360,91080,3
101,90720,91440,3
101,91080,91800,2
101,91440,92160,2
101,91800,92520,2
101,92160,92880,2
101,92520,93240,2
101,92880,93600,2
101,93240,93960,2
101,93600,94320,2
101,93960,94680,2
101,94320,95040,2
101,94680,95400,2
101,95040,95760,2
101,95400,96120,2
101,95760,96480,2
101,96120,96840,2
101,96480,97200,2
101,96840,97560,2
101,97200,97920,2
101,97560,98280,2
101,97920,98640,2
101,98280,99000,2
101,98640,99360,3
101,99000,99720,3
101,99360,100080,2
101,99720,100440,2
101,100080,100800,2
101,100440,101160,2
101,100800,101520,2
101,101160,101880,2
101,101520,102240,2
101,101880,102600,2
101,102240,102960,2
101,102600,103320,2
101,102960,103680,2
101,103320,104040,2
101,103680,104400,2
101,104040,104760,2
101,104400,105120,2
101,104760,105480,2
101,105120,105840,2
101,105480,106200,3
101,105840,106560,3
101,106200,106920,2
101,106560,107280,2
101,106920,107640,2
101,107280,108000,2
101,107640,108360,2
101,108000,108720,2
101,108360,109080,2
101,108720,109440,2
101,109080,109800,2
101,109440,110160,2
101,109800,110520,2
101,110160,110880,2
101,110520,111240,2
101,110880,111600,2
101,111240,111960,2
101,111600,112320,2
101,111960,112680,2
101,112320,113040,2
101,112680,113400,2
101,113040,113760,2
101,113400,114120,2
101,113760,114480,2
101,114120,114840,2
101,114480,115200,2
101,114840,115560,1
101,115200,115920,1
101,115560,116280,2
101,115920,116640,2
101,116280,117000,2
101,116640,117360,2
101,117000,117720,2
101,117360,118080,2
101,117720,118440,2
101,118080,118800,2
101,118440,119160,2
101,118800,119520,3
101,119160,119880,3
101,119520,120240,2
101,119880,120600,2
101,120240,120960,2
101,120600,121320,2
101,120960,121680,2
101,121320,122040,2
101,121680,122400,2
101,122040,122760,2
101,122400,123120,2
101,122760,123480,3
101,123120,123840,3
101,123480,124200,2
101,123840,124560,2
101,124200,124920,2
101,124560,125280,2
101,124920,125640,2
101,125280,126000,2
101,125640,126360,2
101,126000,126720,2
101,126360,127080,2
101,126720,127440,2
101,127080,127800,2
101,127440,128160,2
101,127800,128520,2
101,128160,128880,2
101,128520,129240,2
101,128880,129600,2
101,129240,129960,2
101,129600,130320,2
101,129960,130680,3
101,130320,131040,3
101,130680,131400,2
101,131040,131760,2
101,131400,132120,2
101,131760,132480,2
101,132120,132840,2
101,132480,133200,2
101,132840,133560,2
101,133200,133920,2
101,133560,134280,2
101,133920,134640,2
101,134280,135000,2
101,134640,135360,3
101,135000,135720,2
101,135360,136080,1
101,135720,136440,3
101,136080,136800,3
101,136440,137160,2
101,136800,137520,2
101,137160,137880,1
101,137520,138240,2
101,137880,138600,3
101,138240,138960,2
101,138600,139320,2
101,138960,139680,1
101,139320,140040,1
101,139680,140400,2
101,140040,140760,2
101,140400,141120,2
101,140760,141480,2
101,141120,141840,2
101,141480,142200,2
101,141840,142560,2
101,142200,142920,2
101,142560,143280,2
101,142920,143640,2
101,143280,144000,2
101,143640,144360,2
101,144000,144720,2
101,144360,145080,2
101,144720,145440,2
101,145080,145800,2
101,145440,146160,2
101,145800,146520,2
101,146160,146880,2
101,146520,147240,2
101,146880,147600,2
101,147240,147960,2
101,147600,148320,2
101,147960,148680,2
101,148320,149040,2
101,148680,149400,2
101,149040,149760,2
101,149400,150120,2
101,149760,150480,2
101,150120,150840,2
101,150480,151200,2
101,150840,151560,2
101,151200,151920,2
101,151560,152280,2
101,151920,152640,2
101,152280,153000,2
101,152640,153360,2
101,153000,153720,2
101,153360,154080,2
101,153720,154440,2
101,154080,154800,2
101,154440,155160,2
101,154800,155520,2
101,155160,155880,2
101,155520,156240,2
101,155880,156600,2
101,156240,156960,2
101,156600,157320,1
101,156960,157680,2
101,157320,158040,3
101,157680,158400,2
101,158040,158760,2
101,158400,159120,2
101,158760,159480,1
101,159120,159840,1
101,159480,160200,2
101,159840,160560,2
101,160200,160920,2
101,160560,161280,2
101,160920,161640,2
101,161280,162000,2
101,161640,162360,2
101,162000,162720,2
101,162360,163080,2
101,162720,163440,2
101,163080,163800,2
101,163440,164160,2
101,163800,164520,2
101,164160,164880,2
101,164520,165240,2
101,164880,165600,2
101,165240,165960,2
101,165600,166320,2
101,165960,166680,2
101,166320,167040,2
101,166680,167400,2
101,167040,167760,2
101,167400,168120,2
101,167760,168480,2
101,168120,168840,2
101,168480,169200,2
101,168840,169560,2
101,169200,169920,2
101,169560,170280,2
101,169920,170640,2
101,170280,171000,2
101,170640,171360,2
101,171000,171720,2
101,171360,172080,2
101,171720,172440,2
101,172080,172800,2
101,172440,173160,2
101,172800,173520,2
101,173160,173880,2
101,173520,174240,2
101,173880,174600,2
101,174240,174960,2
101,174600,175320,2
101,174960,175680,2
101,175320,176040,2
101,175680,176400,2
101,176040,176760,2
101,176400,177120,2
101,176760,177480,2
101,177120,177840,2
101,177480,178200,2
101,177840,178560,2
101,178200,178920,2
101,178560,179280,2
101,178920,179640,2
101,179280,180000,2
101,179640,180360,2
101,180000,180720,2
101,180360,181080,2
101,180720,181440,2
101,181080,181800,2
101,181440,182160,2
101,181800,182520,2
101,182160,182880,2
101,182520,183240,2
101,182880,183600,2
101,183240,183960,2
101,183600,184320,2
101,183960,184680,2
101,184320,185040,2
101,184680,185400,2
101,185040,185760,2
101,185400,186120,2
101,185760,186480,2
101,186120,186840,2
101,186480,187200,2
101,186840,187560,2
101,187200,187920,3
101,187560,188280,3
101,187920,188640,2
101,188280,189000,2
101,188640,189360,2
101,189000,189720,2
101,189360,190080,2
101,189720,190440,2
101,190080,190800,2
101,190440,191160,2
101,190800,191520,2
101,191160,191880,2
101,191520,192240,2
101,191880,192600,3
101,192240,192960,3
101,192600,193320,2
101,192960,193680,2
101,193320,194040,2
101,193680,194400,2
101,194040,194760,2
101,194400,195120,2
101,194760,195480,2
101,195120,195840,2
101,195480,196200,2
101,195840,196560,2
101,196200,196920,2
101,196560,197280,2
101,196920,197640,2
101,197280,198000,2
101,197640,198360,2
101,198000,198720,2
101,198360,199080,2
101,198720,199440,2
101,199080,199800,2
101,199440,200160,2
101,199800,200520,2
101,200160,200880,3
101,200520,201240,3
101,200880,201600,2
101,201240,201960,2
101,201600,202320,2
101,201960,202680,2
101,202320,203040,2
101,202680,203400,2
101,203040,203760,2
101,203400,204120,2
101,203760,204480,2
101,204120,204840,2
101,204480,205200,2
101,204840,205560,2
101,205200,205920,2
101,205560,206280,2
101,205920,206640,2
101,206280,207000,2
101,206640,207360,2
101,207000,207720,2
101,207360,208080,2
101,207720,208440,2
101,208080,208800,2
101,208440,209160,2
101,208800,209520,2
101,209160,209880,2
101,209520,210240,2
101,209880,210600,2
101,210240,210960,2
101,210600,211320,2
101,210960,211680,2
101,211320,212040,2
101,211680,212400,2
101,212040,212760,2
101,212400,213120,2
101,212760,213480,2
101,213120,213840,2
101,213480,214200,2
101,213840,214560,2
101,214200,214920,2
101,214560,215280,2
101,214920,215640,2
101,215280,216000,2
101,215640,216360,2
101,216000,216720,2
101,216360,217080,2
101,216720,217440,2
101,217080,217800,2
101,217440,218160,2
101,217800,218520,2
101,218160,218880,2
101,218520,219240,2
101,218880,219600,2
101,219240,219960,2
101,219600,220320,2
101,219960,220680,2
101,220320,221040,2
101,220680,221400,2
101,221040,221760,2
101,221400,222120,2
101,221760,222480,2
101,222120,222840,2
101,222480,223200,2
101,222840,223560,2
101,223200,223920,2
101,223560,224280,2
101,223920,224640,2
101,224280,225000,2
101,224640,225360,2
101,225000,225720,2
101,225360,226080,2
101,225720,226440,2
101,226080,226800,2
101,226440,227160,2
101,226800,227520,2
101,227160,227880,2
101,227520,228240,2
101,227880,228600,2
101,228240,228960,2
101,228600,229320,2
101,228960,229680,2
101,229320,230040,2
101,229680,230400,2
101,230040,230760,2
101,230400,231120,2
101,230760,231480,2
101,231120,231840,2
101,231480,232200,2
101,231840,232560,2
101,232200,232920,2
101,232560,233280,2
101,232920,233640,2
101,233280,234000,2
101,233640,234360,2
101,234000,234720,2
101,234360,235080,1
101,234720,235440,1
101,235080,235800,2
101,235440,236160,2
101,235800,236520,2
101,236160,236880,2
101,236520,237240,2
101,236880,237600,2
101,237240,237960,2
101,237600,238320,2
101,237960,238680,2
101,238320,239040,2
101,238680,239400,2
101,239040,239760,2
101,239400,240120,2
101,239760,240480,2
101,240120,240840,2
101,240480,241200,2
101,240840,241560,2
101,241200,241920,2
101,241560,242280,2
101,241920,242640,2
101,242280,243000,2
101,242640,243360,2
101,243000,243720,2
101,243360,244080,2
101,243720,244440,2
101,244080,244800,2
101,244440,245160,2
101,244800,245520,2
101,245160,245880,2
101,245520,246240,2
101,245880,246600,2
101,246240,246960,2
101,246600,247320,2
101,246960,247680,2
101,247320,248040,2
101,247680,248400,2
101,248040,248760,2
101,248400,249120,2
101,248760,249480,2
101,249120,249840,2
101,249480,250200,2
101,249840,250560,2
101,250200,250920,2
101,250560,251280,2
101,250920,251640,2
101,251280,252000,2
101,251640,252360,2
101,252000,252720,2
101,252360,253080,2
101,252720,253440,2
101,253080,253800,2
101,253440,254160,2
101,253800,254520,2
101,254160,254880,2
101,254520,255240,2
101,254880,255600,2
101,255240,255960,1
101,255600,256320,1
101,255960,256680,2
101,256320,257040,2
101,256680,257400,2
101,257040,257760,2
101,257400,258120,2
101,257760,258480,2
101,258120,258840,2
101,258480,259200,2
101,258840,259560,2
101,259200,259920,2
101,259560,260280,2
101,259920,260640,2
101,260280,261000,2
101,260640,261360,2
101,261000,261720,2
101,261360,262080,2
101,261720,262440,2
101,262080,262800,2
101,262440,263160,2
101,262800,263520,2
101,263160,263880,2
101,263520,264240,2
101,263880,264600,2
101,264240,264960,2
101,264600,265320,2
101,264960,265680,2
101,265320,266040,2
101,265680,266400,2
101,266040,266760,2
101,266400,267120,2
101,266760,267480,2
101,267120,267840,2
101,267480,268200,2
101,267840,268560,2
101,268200,268920,2
101,268560,269280,2
101,268920,269640,2
101,269280,270000,2
101,269640,270360,2
101,270000,270720,2
101,270360,271080,2
101,270720,271440,2
101,271080,271800,2
101,271440,272160,2
101,271800,272520,2
101,272160,272880,2
101,272520,273240,2
101,272880,273600,2
101,273240,273960,2
101,273600,274320,2
101,273960,274680,2
101,274320,275040,2
101,274680,275400,2
101,275040,275760,2
101,275400,276120,2
101,275760,276480,2
101,276120,276840,2
101,276480,277200,2
101,276840,277560,2
101,277200,277920,2
101,277560,278280,2
101,277920,278640,2
101,278280,279000,2
101,278640,279360,2
101,279000,279720,2
101,279360,280080,2
101,279720,280440,2
101,280080,280800,2
101,280440,281160,2
101,280800,281520,2
101,281160,281880,2
101,281520,282240,2
101,281880,282600,2
101,282240,282960,2
101,282600,283320,2
101,282960,283680,2
101,283320,284040,2
101,283680,284400,1
101,284040,284760,1
101,284400,285120,2
101,284760,285480,2
101,285120,285840,2
101,285480,286200,2
101,285840,286560,2
101,286200,286920,2
101,286560,287280,2
101,286920,287640,2
101,287280,288000,2
101,287640,288360,2
101,288000,288720,2
101,288360,289080,2
101,288720,289440,2
101,289080,289800,2
101,289440,290160,2
101,289800,290520,2
101,290160,290880,2
101,290520,291240,2
101,290880,291600,2
101,291240,291960,2
101,291600,292320,2
101,291960,292680,2
101,292320,293040,2
101,292680,293400,2
101,293040,293760,2
101,293400,294120,2
101,293760,294480,2
101,294120,294840,2
101,294480,295200,2
101,294840,295560,2
101,295200,295920,2
101,295560,296280,2
101,295920,296640,2
101,296280,297000,2
101,296640,297360,2
101,297000,297720,2
101,297360,298080,2
101,297720,298440,2
101,298080,298800,2
101,298440,299160,2
101,298800,299520,2
101,299160,299880,2
101,299520,300240,2
101,299880,300600,2
101,300240,300960,2
101,300600,301320,3
101,300960,301680,3
101,301320,302040,2
101,301680,302400,2
101,302040,302760,2
101,302400,303120,2
101,302760,303480,2
101,303120,303840,1
101,303480,304200,1
101,303840,304560,2
101,304200,304920,2
101,304560,305280,2
101,304920,305640,2
101,305280,306000,2
101,305640,306360,2
101,306000,306720,2
101,306360,307080,2
101,306720,307440,2
101,307080,307800,2
101,307440,308160,2
101,307800,308520,2
101,308160,308880,2
101,308520,309240,2
101,308880,309600,2
101,309240,309960,2
101,309600,310320,2
101,309960,310680,2
101,310320,311040,2
101,310680,311400,2
101,311040,311760,2
101,311400,312120,2
101,311760,312480,2
101,312120,312840,2
101,312480,313200,2
101,312840,313560,2
101,313200,313920,2
101,313560,314280,2
101,313920,314640,2
101,314280,315000,3
101,314640,315360,3
101,315000,315720,2
101,315360,316080,2
101,315720,316440,2
101,316080,316800,2
101,316440,317160,2
101,316800,317520,2
101,317160,317880,2
101,317520,318240,2
101,317880,318600,2
101,318240,318960,2
101,318600,319320,2
101,318960,319680,2
101,319320,320040,2
101,319680,320400,2
101,320040,320760,2
101,320400,321120,2
101,320760,321480,2
101,321120,321840,2
101,321480,322200,2
101,321840,322560,2
101,322200,322920,2
101,322560,323280,2
101,322920,323640,2
101,323280,324000,2
101,323640,324360,2
101,324000,324720,2
101,324360,325080,2
101,324720,325440,2
101,325080,325800,2
101,325440,326160,2
101,325800,326520,2
101,326160,326880,2
101,326520,327240,3
101,326880,327600,3
101,327240,327960,2
101,327600,328320,2
101,327960,328680,2
101,328320,329040,2
101,328680,329400,2
101,329040,329760,2
101,329400,330120,2
101,329760,330480,2
101,330120,330840,2
101,330480,331200,2
101,330840,331560,1
101,331200,331920,1
101,331560,332280,2
101,331920,332640,2
101,332280,333000,2
101,332640,333360,2
101,333000,333720,2
101,333360,334080,2
101,333720,334440,2
101,334080,334800,3
101,334440,335160,3
101,334800,335520,2
101,335160,335880,2
101,335520,336240,2
101,335880,336600,2
101,336240,336960,2
101,336600,337320,3
101,336960,337680,3
101,337320,338040,2
101,337680,338400,2
101,338040,338760,2
101,338400,339120,2
101,338760,339480,2
101,339120,339840,2
101,339480,340200,2
101,339840,340560,2
101,340200,340920,2
101,340560,341280,2
101,340920,341640,2
101,341280,342000,2
101,341640,342360,2
101,342000,342720,2
101,342360,343080,2
101,342720,343440,2
101,343080,343800,2
101,343440,344160,2
101,343800,344520,2
101,344160,344880,2
101,344520,345240,2
101,344880,345600,2
101,345240,345960,2
101,345600,346320,2
101,345960,346680,2
101,346320,347040,2
101,346680,347400,2
101,347040,347760,2
101,347400,348120,2
101,347760,348480,2
101,348120,348840,2
101,348480,349200,2
101,348840,349560,2
101,349200,349920,2
101,349560,350280,3
101,349920,350640,3
101,350280,351000,2
101,350640,351360,2
101,351000,351720,2
101,351360,352080,2
101,351720,352440,2
101,352080,352800,3
101,352440,353160,3
101,352800,353520,1
101,353160,353880,1
101,353520,354240,2
101,353880,354600,3
101,354240,354960,3
101,354600,355320,2
101,354960,355680,2
101,355320,356040,2
101,355680,356400,2
101,356040,356760,2
101,356400,357120,2
101,356760,357480,2
101,357120,357840,2
101,357480,358200,2
101,357840,358560,2
101,358200,358920,2
101,358560,359280,2
101,358920,359640,2
101,359280,360000,2
101,359640,360360,2
101,360000,360720,2
101,360360,361080,2
101,360720,361440,2
101,361080,361800,2
101,361440,362160,2
101,361800,362520,2
101,362160,362880,2
101,362520,363240,2
101,362880,363600,2
101,363240,363960,3
101,363600,364320,3
101,363960,364680,2
101,364320,365040,2
101,364680,365400,2
101,365040,365760,2
101,365400,366120,2
101,365760,366480,2
101,366120,366840,2
101,366480,367200,2
101,366840,367560,2
101,367200,367920,2
101,367560,368280,2
101,367920,368640,2
101,368280,369000,2
101,368640,369360,2
101,369000,369720,2
101,369360,370080,2
101,369720,370440,2
101,370080,370800,2
101,370440,371160,2
101,370800,371520,2
101,371160,371880,2
101,371520,372240,2
101,371880,372600,2
101,372240,372960,2
101,372600,373320,2
101,372960,373680,2
101,373320,374040,2
101,373680,374400,2
101,374040,374760,2
101,374400,375120,2
101,374760,375480,2
101,375120,375840,2
101,375480,376200,2
101,375840,376560,2
101,376200,376920,2
101,376560,377280,2
101,376920,377640,2
101,377280,378000,2
101,377640,378360,2
101,378000,378720,2
101,378360,379080,2
101,378720,379440,2
101,379080,379800,2
101,379440,380160,2
101,379800,380520,2
101,380160,380880,2
101,380520,381240,2
101,380880,381600,2
101,381240,381960,2
101,381600,382320,2
101,381960,382680,2
101,382320,383040,2
101,382680,383400,2
101,383040,383760,2
101,383400,384120,2
101,383760,384480,2
101,384120,384840,2
101,384480,385200,2
101,384840,385560,2
101,385200,385920,2
101,385560,386280,2
101,385920,386640,2
101,386280,387000,2
101,386640,387360,2
101,387000,387720,2
101,387360,388080,2
101,387720,388440,2
101,388080,388800,3
101,388440,389160,3
101,388800,389520,2
101,389160,389880,2
101,389520,390240,2
101,389880,390600,2
101,390240,390960,2
101,390600,391320,2
101,390960,391680,2
101,391320,392040,2
101,391680,392400,2
101,392040,392760,2
101,392400,393120,2
101,392760,393480,2
101,393120,393840,2
101,393480,394200,2
101,393840,394560,2
101,394200,394920,2
101,394560,395280,2
101,394920,395640,2
101,395280,396000,2
101,395640,396360,2
101,396000,396720,2
101,396360,397080,2
101,396720,397440,2
101,397080,397800,2
101,397440,398160,2
101,397800,398520,2
101,398160,398880,2
101,398520,399240,2
101,398880,399600,2
101,399240,399960,2
101,399600,400320,2
101,399960,400680,2
101,400320,401040,2
101,400680,401400,2
101,401040,401760,2
101,401400,402120,2
101,401760,402480,2
101,402120,402840,2
101,402480,403200,2
101,402840,403560,2
101,403200,403920,2
101,403560,404280,2
101,403920,404640,2
101,404280,405000,2
101,404640,405360,2
101,405000,405720,2
101,405360,406080,2
101,405720,406440,2
101,406080,406800,2
101,406440,407160,2
101,406800,407520,2
101,407160,407880,2
101,407520,408240,2
101,407880,408600,2
101,408240,408960,2
101,408600,409320,2
101,408960,409680,2
101,409320,410040,2
101,409680,410400,2
101,410040,410760,2
101,410400,411120,2
101,410760,411480,2
101,411120,411840,2
101,411480,412200,2
101,411840,412560,2
101,412200,412920,2
101,412560,413280,2
101,412920,413640,2
101,413280,414000,2
101,413640,414360,2
101,414000,414720,2
101,414360,415080,2
101,414720,415440,2
101,415080,415800,2
101,415440,416160,2
101,415800,416520,2
101,416160,416880,2
101,416520,417240,2
101,416880,417600,2
101,417240,417960,2
101,417600,418320,2
101,417960,418680,2
101,418320,419040,2
101,418680,419400,2
101,419040,419760,2
101,419400,420120,2
101,419760,420480,2
101,420120,420840,2
101,420480,421200,2
101,420840,421560,2
101,421200,421920,2
101,421560,422280,2
101,421920,422640,2
101,422280,423000,2
101,422640,423360,2
101,423000,423720,2
101,423360,424080,2
101,423720,424440,2
101,424080,424800,2
101,424440,425160,2
101,424800,425520,2
101,425160,425880,2
101,425520,426240,2
101,425880,426600,2
101,426240,426960,2
101,426600,427320,2
101,426960,427680,2
101,427320,428040,2
101,427680,428400,2
101,428040,428760,2
101,428400,429120,2
101,428760,429480,2
101,429120,429840,2
101,429480,430200,2
101,429840,430560,2
101,430200,430920,2
101,430560,431280,2
101,430920,431640,2
101,431280,432000,2
101,431640,432360,2
101,432000,432720,2
101,432360,433080,2
101,432720,433440,2
101,433080,433800,2
101,433440,434160,2
101,433800,434520,3
101,434160,434880,3
101,434520,435240,2
101,434880,435600,2
101,435240,435960,2
101,435600,436320,1
101,435960,436680,2
101,436320,437040,3
101,436680,437400,2
101,437040,437760,1
101,437400,438120,1
101,437760,438480,2
101,438120,438840,3
101,438480,439200,3
101,438840,439560,2
101,439200,439920,2
101,439560,440280,2
101,439920,440640,2
101,440280,441000,2
101,440640,441360,2
101,441000,441720,2
101,441360,442080,2
101,441720,442440,2
101,442080,442800,2
101,442440,443160,2
101,442800,443520,2
101,443160,443880,2
101,443520,444240,2
101,443880,444600,2
101,444240,444960,2
101,444600,445320,3
101,444960,445680,3
101,445320,446040,2
101,445680,446400,2
101,446040,446760,2
101,446400,447120,2
101,446760,447480,2
101,447120,447840,2
101,447480,448200,2
101,447840,448560,2
101,448200,448920,2
101,448560,449280,2
101,448920,449640,2
101,449280,450000,2
101,449640,450360,2
101,450000,450720,2
101,450360,451080,2
101,450720,451440,2
101,451080,451800,2
101,451440,452160,2
101,451800,452520,2
101,452160,452880,2
101,452520,453240,2
101,452880,453600,2
101,453240,453960,2
101,453600,454320,2
101,453960,454680,2
101,454320,455040,2
101,454680,455400,2
101,455040,455760,2
101,455400,456120,2
101,455760,456480,3
101,456120,456840,3
101,456480,457200,2
101,456840,457560,2
101,457200,457920,2
101,457560,458280,2
101,457920,458640,2
101,458280,459000,2
101,458640,459360,2
101,459000,459720,2
101,459360,460080,2
101,459720,460440,2
101,460080,460800,2
101,460440,461160,2
101,460800,461520,2
101,461160,461880,2
101,461520,462240,2
101,461880,462600,2
101,462240,462960,2
101,462600,463320,2
101,462960,463680,2
101,463320,464040,2
101,463680,464400,2
101,464040,464760,2
101,464400,465120,2
101,464760,465480,2
101,465120,465840,2
101,465480,466200,2
101,465840,466560,3
101,466200,466920,3
101,466560,467280,2
101,466920,467640,2
101,467280,468000,2
101,467640,468360,2
101,468000,468720,2
101,468360,469080,2
101,468720,469440,2
101,469080,469800,2
101,469440,470160,2
101,469800,470520,2
101,470160,470880,2
101,470520,471240,2
101,470880,471600,2
101,471240,471960,2
101,471600,472320,2
101,471960,472680,2
101,472320,473040,2
101,472680,473400,2
101,473040,473760,2
101,473400,474120,2
101,473760,474480,2
101,474120,474840,2
101,474480,475200,2
101,474840,475560,2
101,475200,475920,2
101,475560,476280,2
101,475920,476640,2
101,476280,477000,2
101,476640,477360,2
101,477000,477720,3
101,477360,478080,3
101,477720,478440,2
101,478080,478800,2
101,478440,479160,2
101,478800,479520,2
101,479160,479880,2
101,479520,480240,2
101,479880,480600,2
101,480240,480960,2
101,480600,481320,2
101,480960,481680,2
101,481320,482040,2
101,481680,482400,2
101,482040,482760,2
101,482400,483120,2
101,482760,483480,2
101,483120,483840,2
101,483480,484200,2
101,483840,484560,2
101,484200,484920,2
101,484560,485280,2
101,484920,485640,2
101,485280,486000,2
101,485640,486360,2
101,486000,486720,2
101,486360,487080,2
101,486720,487440,2
101,487080,487800,2
101,487440,488160,2
101,487800,488520,2
101,488160,488880,2
101,488520,489240,2
101,488880,489600,2
101,489240,489960,2
101,489600,490320,2
101,489960,490680,2
101,490320,491040,2
101,490680,491400,2
101,491040,491760,2
101,491400,492120,2
101,491760,492480,2
101,492120,492840,3
101,492480,493200,3
101,492840,493560,2
101,493200,493920,2
101,493560,494280,2
101,493920,494640,2
101,494280,495000,2
101,494640,495360,2
101,495000,495720,2
101,495360,496080,2
101,495720,496440,2
101,496080,496800,2
101,496440,497160,2
101,496800,497520,2
101,497160,497880,2
101,497520,498240,2
101,497880,498600,3
101,498240,498960,3
101,498600,499320,2
101,498960,499680,2
101,499320,500040,2
101,499680,500400,2
101,500040,500760,2
101,500400,501120,3
101,500760,501480,3
101,501120,501840,2
101,501480,502200,2
101,501840,502560,2
101,502200,502920,2
101,502560,503280,2
101,502920,503640,2
101,503280,504000,2
101,503640,504360,2
101,504000,504720,2
101,504360,505080,2
101,504720,505440,3
101,505080,505800,3
101,505440,506160,2
101,505800,506520,2
101,506160,506880,2
101,506520,507240,2
101,506880,507600,2
101,507240,507960,2
101,507600,508320,2
101,507960,508680,2
101,508320,509040,2
101,508680,509400,2
101,509040,509760,2
101,509400,510120,2
101,509760,510480,2
101,510120,510840,2
101,510480,511200,2
101,510840,511560,2
101,511200,511920,2
101,511560,512280,2
101,511920,512640,2
101,512280,513000,2
101,512640,513360,2
101,513000,513720,2
101,513360,514080,2
101,513720,514440,2
101,514080,514800,2
101,514440,515160,2
101,514800,515520,2
101,515160,515880,2
101,515520,516240,2
101,515880,516600,2
101,516240,516960,2
101,516600,517320,2
101,516960,517680,2
101,517320,518040,2
101,517680,518400,2
101,518040,518760,2
101,518400,519120,2
101,518760,519480,2
101,519120,519840,2
101,519480,520200,2
101,519840,520560,2
101,520200,520920,2
101,520560,521280,2
101,520920,521640,2
101,521280,522000,2
101,521640,522360,2
101,522000,522720,2
101,522360,523080,2
101,522720,523440,2
101,523080,523800,2
101,523440,524160,2
101,523800,524520,2
101,524160,524880,2
101,524520,525240,2
101,524880,525600,2
101,525240,525960,2
101,525600,526320,2
101,525960,526680,2
101,526320,527040,2
101,526680,527400,2
101,527040,527760,2
101,527400,528120,2
101,527760,528480,2
101,528120,528840,2
101,528480,529200,2
101,528840,529560,2
101,529200,529920,2
101,529560,530280,2
101,529920,530640,2
101,530280,531000,2
101,530640,531360,2
101,531000,531720,2
101,531360,532080,3
101,531720,532440,2
101,532080,532800,1
101,532440,533160,2
101,532800,533520,2
101,533160,533880,2
101,533520,534240,2
101,533880,534600,2
101,534240,534960,2
101,534600,535320,2
101,534960,535680,2
101,535320,536040,2
101,535680,536400,2
101,536040,536760,2
101,536400,537120,2
101,536760,537480,2
101,537120,537840,2
101,537480,538200,2
101,537840,538560,2
101,538200,538920,2
101,538560,539280,2
101,538920,539640,2
101,539280,540000,2
101,539640,540360,2
101,540000,540720,2
101,540360,541080,2
101,540720,541440,2
101,541080,541800,2
101,541440,542160,2
101,541800,542520,2
101,542160,542880,2
101,542520,543240,2
101,542880,543600,2
101,543240,543960,2
101,543600,544320,2
101,543960,544680,2
101,544320,545040,2
101,544680,545400,2
101,545040,545760,2
101,545400,546120,2
101,545760,546480,2
101,546120,546840,2
101,546480,547200,2
101,546840,547560,2
101,547200,547920,2
101,547560,548280,2
101,547920,548640,2
101,548280,549000,2
101,548640,549360,2
101,549000,549720,2
101,549360,550080,2
101,549720,550440,2
101,550080,550800,2
101,550440,551160,2
101,550800,551520,2
101,551160,551880,2
101,551520,552240,2
101,551880,552600,2
101,552240,552960,2
101,552600,553320,2
101,552960,553680,2
101,553320,554040,2
101,553680,554400,2
101,554040,554760,2
101,554400,555120,2
101,554760,555480,2
101,555120,555840,2
101,555480,556200,2
101,555840,556560,2
101,556200,556920,2
101,556560,557280,2
101,556920,557640,2
101,557280,558000,2
101,557640,558360,2
101,558000,558720,2
101,558360,559080,2
101,558720,559440,2
101,559080,559800,2
101,559440,560160,2
101,559800,560520,2
101,560160,560880,2
101,560520,561240,2
101,560880,561600,2
101,561240,561960,2
101,561600,562320,2
101,561960,562680,2
101,562320,563040,2
101,562680,563400,2
101,563040,563760,2
101,563400,564120,2
101,563760,564480,2
101,564120,564840,2
101,564480,565200,2
101,564840,565560,2
101,565200,565920,2
101,565560,566280,2
101,565920,566640,2
101,566280,567000,2
101,566640,567360,2
101,567000,567720,2
101,567360,568080,2
101,567720,568440,2
101,568080,568800,2
101,568440,569160,2
101,568800,569520,2
101,569160,569880,2
101,569520,570240,2
101,569880,570600,2
101,570240,570960,2
101,570600,571320,2
101,570960,571680,2
101,571320,572040,2
101,571680,572400,2
101,572040,572760,2
101,572400,573120,2
101,572760,573480,2
101,573120,573840,2
101,573480,574200,2
101,573840,574560,2
101,574200,574920,2
101,574560,575280,2
101,574920,575640,2
101,575280,576000,2
101,575640,576360,2
101,576000,576720,2
101,576360,577080,2
101,576720,577440,2
101,577080,577800,2
101,577440,578160,2
101,577800,578520,2
101,578160,578880,2
101,578520,579240,2
101,578880,579600,2
101,579240,579960,2
101,579600,580320,2
101,579960,580680,2
101,580320,581040,2
101,580680,581400,2
101,581040,581760,2
101,581400,582120,2
101,581760,582480,1
101,582120,582840,1
101,582480,583200,2
101,582840,583560,2
101,583200,583920,2
101,583560,584280,2
101,583920,584640,2
101,584280,585000,2
101,584640,585360,2
101,585000,585720,2
101,585360,586080,2
101,585720,586440,2
101,586080,586800,2
101,586440,587160,2
101,586800,587520,2
101,587160,587880,2
101,587520,588240,2
101,587880,588600,2
101,588240,588960,2
101,588600,589320,2
101,588960,589680,2
101,589320,590040,2
101,589680,590400,2
101,590040,590760,2
101,590400,591120,2
101,590760,591480,2
101,591120,591840,2
101,591480,592200,2
101,591840,592560,3
101,592200,592920,3
101,592560,593280,2
101,592920,593640,2
101,593280,594000,2
101,593640,594360,2
101,594000,594720,2
101,594360,595080,2
101,594720,595440,2
101,595080,595800,2
101,595440,596160,2
101,595800,596520,2
101,596160,596880,2
101,596520,597240,2
101,596880,597600,2
101,597240,597960,2
101,597600,598320,2
101,597960,598680,2
101,598320,599040,2
101,598680,599400,2
101,599040,599760,2
101,599400,600120,2
101,599760,600480,2
101,600120,600840,2
101,600480,601200,2
101,600840,601560,2
101,601200,601920,2
101,601560,602280,2
101,601920,602640,2
101,602280,603000,2
101,602640,603360,2
101,603000,603720,2
101,603360,604080,2
101,603720,604440,2
101,604080,604800,2
101,604440,605160,2
101,604800,605520,2
101,605160,605880,2
101,605520,606240,2
101,605880,606600,2
101,606240,606960,2
101,606600,607320,2
101,606960,607680,2
101,607320,608040,3
101,607680,608400,3
101,608040,608760,2
101,608400,609120,2
101,608760,609480,2
101,609120,609840,2
101,609480,610200,2
101,609840,610560,2
101,610200,610920,2
101,610560,611280,2
101,610920,611640,2
101,611280,612000,2
101,611640,612360,2
101,612000,612720,2
101,612360,613080,2
101,612720,613440,2
101,613080,613800,2
101,613440,614160,2
101,613800,614520,2
101,614160,614880,2
101,614520,615240,2
101,614880,615600,2
101,615240,615960,2
101,615600,616320,2
101,615960,616680,2
101,616320,617040,2
101,616680,617400,2
101,617040,617760,1
101,617400,618120,2
101,617760,618480,3
101,618120,618840,2
101,618480,619200,2
101,618840,619560,1
101,619200,619920,1
101,619560,620280,2
101,619920,620640,2
101,620280,621000,2
101,620640,621360,2
101,621000,621720,2
101,621360,622080,2
101,621720,622440,2
101,622080,622800,3
101,622440,623160,2
101,622800,623520,1
101,623160,623880,3
101,623520,624240,3
101,623880,624600,2
101,624240,624960,2
101,624600,625320,2
101,624960,625680,2
101,625320,626040,2
101,625680,626400,2
101,626040,626760,2
101,626400,627120,2
101,626760,627480,2
101,627120,627840,2
101,627480,628200,2
101,627840,628560,2
101,628200,628920,2
101,628560,629280,2
101,628920,629640,2
101,629280,630000,2
101,629640,630360,2
101,630000,630720,2
101,630360,631080,2
101,630720,631440,2
101,631080,631800,2
101,631440,632160,2
101,631800,632520,2
101,632160,632880,2
101,632520,633240,2
101,632880,633600,2
101,633240,633960,2
101,633600,634320,2
101,633960,634680,2
101,634320,635040,2
101,634680,635400,2
101,635040,635760,2
101,635400,636120,2
101,635760,636480,1
101,636120,636840,1
101,636480,637200,2
101,636840,637560,3
101,637200,637920,3
101,637560,638280,2
101,637920,638640,2
101,638280,639000,2
101,638640,639360,2
101,639000,639720,2
101,639360,640080,2
101,639720,640440,2
101,640080,640800,2
101,640440,641160,2
101,640800,641520,2
101,641160,641880,2
101,641520,642240,2
101,641880,642600,2
101,642240,642960,2
101,642600,643320,2
101,642960,643680,2
101,643320,644040,2
101,643680,644400,2
101,644040,644760,2
101,644400,645120,2
101,644760,645480,2
101,645120,645840,2
101,645480,646200,2
101,645840,646560,2
101,646200,646920,2
101,646560,647280,2
101,646920,647640,2
101,647280,648000,2
101,647640,648360,2
101,648000,648720,2
101,648360,649080,2
101,648720,649440,2
101,649080,649800,2
102,0,720,3
102,360,1080,3
102,720,1440,2
102,1080,1800,2
102,1440,2160,2
102,1800,2520,3
102,2160,2880,3
102,2520,3240,2
102,2880,3600,2
102,3240,3960,2
102,3600,4320,3
102,3960,4680,3
102,4320,5040,2
102,4680,5400,2
102,5040,5760,2
102,5400,6120,3
102,5760,6480,3
102,6120,6840,2
102,6480,7200,2
102,6840,7560,3
102,7200,7920,3
102,7560,8280,2
102,7920,8640,2
102,8280,9000,2
102,8640,9360,3
102,9000,9720,3
102,9360,10080,2
102,9720,10440,2
102,10080,10800,2
102,10440,11160,3
102,10800,11520,3
102,11160,11880,2
102,11520,12240,2
102,11880,12600,2
102,12240,12960,3
102,12600,13320,3
102,12960,13680,2
102,13320,14040,2
102,13680,14400,2
102,14040,14760,3
102,14400,15120,3
102,14760,15480,2
102,15120,15840,2
102,15480,16200,3
102,15840,16560,3
102,16200,16920,2
102,16560,17280,2
102,16920,17640,2
102,17280,18000,3
102,17640,18360,3
102,18000,18720,2
102,18360,19080,2
102,18720,19440,2
102,19080,19800,3
102,19440,20160,3
102,19800,20520,2
102,20160,20880,2
102,20520,21240,2
102,20880,21600,3
102,21240,21960,3
102,21600,22320,2
102,21960,22680,2
102,22320,23040,2
102,22680,23400,3
102,23040,23760,3
102,23400,24120,2
102,23760,24480,2
102,24120,24840,3
102,24480,25200,3
102,24840,25560,2
102,25200,25920,2
102,25560,26280,2
102,25920,26640,3
102,26280,27000,3
102,26640,27360,2
102,27000,27720,2
102,27360,28080,2
102,27720,28440,3
102,28080,28800,3
102,28440,29160,2
102,28800,29520,2
102,29160,29880,2
102,29520,30240,3
102,29880,30600,3
102,30240,30960,2
102,30600,31320,3
102,30960,31680,3
102,31320,32040,2
102,31680,32400,2
102,32040,32760,3
102,32400,33120,3
102,32760,33480,2
102,33120,33840,2
102,33480,34200,3
102,33840,34560,3
102,34200,34920,2
102,34560,35280,3
102,34920,35640,3
102,35280,36000,2
102,35640,36360,2
102,36000,36720,2
102,36360,37080,3
102,36720,37440,3
102,37080,37800,2
102,37440,38160,2
102,37800,38520,2
102,38160,38880,3
102,38520,39240,3
102,38880,39600,2
102,39240,39960,2
102,39600,40320,3
102,39960,40680,3
102,40320,41040,2
102,40680,41400,2
102,41040,41760,3
102,41400,42120,3
102,41760,42480,2
102,42120,42840,2
102,42480,43200,2
102,42840,43560,3
102,43200,43920,3
102,43560,44280,2
102,43920,44640,2
102,44280,45000,3
102,44640,45360,3
102,45000,45720,2
102,45360,46080,2
102,45720,46440,3
102,46080,46800,3
102,46440,47160,2
102,46800,47520,2
102,47160,47880,3
102,47520,48240,3
102,47880,48600,2
102,48240,48960,2
102,48600,49320,3
102,48960,49680,3
102,49320,50040,2
102,49680,50400,2
102,50040,50760,3
102,50400,51120,3
102,50760,51480,2
102,51120,51840,2
102,51480,52200,3
102,51840,52560,3
102,52200,52920,2
102,52560,53280,2
102,52920,53640,3
102,53280,54000,3
102,53640,54360,2
102,54000,54720,2
102,54360,55080,3
102,54720,55440,3
102,55080,55800,2
102,55440,56160,2
102,55800,56520,3
102,56160,56880,3
102,56520,57240,2
102,56880,57600,2
102,57240,57960,3
102,57600,58320,3
102,57960,58680,2
102,58320,59040,2
102,58680,59400,3
102,59040,59760,3
102,59400,60120,2
102,59760,60480,2
102,60120,60840,3
102,60480,61200,3
102,60840,61560,2
102,61200,61920,2
102,61560,62280,3
102,61920,62640,3
102,62280,63000,2
102,62640,63360,2
102,63000,63720,3
102,63360,64080,3
102,63720,64440,2
102,64080,64800,2
102,64440,65160,2
102,64800,65520,3
102,65160,65880,3
102,65520,66240,2
102,65880,66600,2
102,66240,66960,2
102,66600,67320,3
102,66960,67680,3
102,67320,68040,2
102,67680,68400,2
102,68040,68760,2
102,68400,69120,3
102,68760,69480,3
102,69120,69840,2
102,69480,70200,2
102,69840,70560,3
102,70200,70920,3
102,70560,71280,2
102,70920,71640,2
102,71280,72000,2
102,71640,72360,3
102,72000,72720,3
102,72360,73080,2
102,72720,73440,2
102,73080,73800,2
102,73440,74160,3
102,73800,74520,3
102,74160,74880,2
102,74520,75240,2
102,74880,75600,2
102,75240,75960,3
102,75600,76320,3
102,75960,76680,2
102,76320,77040,2
102,76680,77400,2
102,77040,77760,3
102,77400,78120,3
102,77760,78480,2
102,78120,78840,2
102,78480,79200,2
102,78840,79560,3
102,79200,79920,3
102,79560,80280,2
102,79920,80640,2
102,80280,81000,3
102,80640,81360,3
102,81000,81720,2
102,81360,82080,2
102,81720,82440,2
102,82080,82800,3
102,82440,83160,3
102,82800,83520,2
102,83160,83880,2
102,83520,84240,2
102,83880,84600,3
102,84240,84960,3
102,84600,85320,2
102,84960,85680,2
102,85320,86040,2
102,85680,86400,3
102,86040,86760,3
102,86400,87120,2
102,86760,87480,2
102,87120,87840,2
102,87480,88200,3
102,87840,88560,3
102,88200,88920,2
102,88560,89280,2
102,88920,89640,3
102,89280,90000,3
102,89640,90360,2
102,90000,90720,2
102,90360,91080,2
102,90720,91440,3
102,91080,91800,3
102,91440,92160,2
102,91800,92520,2
102,92160,92880,2
102,92520,93240,3
102,92880,93600,3
102,93240,93960,2
102,93600,94320,2
102,93960,94680,2
102,94320,95040,3
102,94680,95400,3
102,95040,95760,2
102,95400,96120,2
102,95760,96480,3
102,96120,96840,3
102,96480,97200,2
102,96840,97560,2
102,97200,97920,2
102,97560,98280,3
102,97920,98640,3
102,98280,99000,2
102,98640,99360,2
102,99000,99720,2
102,99360,100080,3
102,99720,100440,3
102,100080,100800,2
102,100440,101160,2
102,100800,101520,2
102,101160,101880,3
102,101520,102240,3
102,101880,102600,2
102,102240,102960,2
102,102600,103320,2
102,102960,103680,3
102,103320,104040,3
102,103680,104400,2
102,104040,104760,2
102,104400,105120,3
102,104760,105480,3
102,105120,105840,2
102,105480,106200,2
102,105840,106560,2
102,106200,106920,3
102,106560,107280,3
102,106920,107640,2
102,107280,108000,2
102,107640,108360,2
102,108000,108720,3
102,108360,109080,3
102,108720,109440,2
102,109080,109800,2
102,109440,110160,2
102,109800,110520,3
102,110160,110880,3
102,110520,111240,2
102,110880,111600,2
102,111240,111960,2
102,111600,112320,3
102,111960,112680,3
102,112320,113040,2
102,112680,113400,2
102,113040,113760,3
102,113400,114120,3
102,113760,114480,2
102,114120,114840,2
102,114480,115200,2
102,114840,115560,3
102,115200,115920,3
102,115560,116280,2
102,115920,116640,2
102,116280,117000,2
102,116640,117360,3
102,117000,117720,3
102,117360,118080,2
102,117720,118440,2
102,118080,118800,2
102,118440,119160,3
102,118800,119520,3
102,119160,119880,2
102,119520,120240,2
102,119880,120600,2
102,120240,120960,3
102,120600,121320,3
102,120960,121680,2
102,121320,122040,2
102,121680,122400,3
102,122040,122760,3
102,122400,123120,2
102,122760,123480,2
102,123120,123840,2
102,123480,124200,3
102,123840,124560,3
102,124200,124920,2
102,124560,125280,2
102,124920,125640,2
102,125280,126000,3
102,125640,126360,3
102,126000,126720,2
102,126360,127080,2
102,126720,127440,2
102,127080,127800,3
102,127440,128160,3
102,127800,128520,2
102,128160,128880,2
102,128520,129240,3
102,128880,129600,3
102,129240,129960,2
102,129600,130320,2
102,129960,130680,2
102,130320,131040,3
102,130680,131400,3
102,131040,131760,2
102,131400,132120,2
102,131760,132480,2
102,132120,132840,3
102,132480,133200,3
102,132840,133560,2
102,133200,133920,2
102,133560,134280,3
102,133920,134640,3
102,134280,135000,2
102,134640,135360,2
102,135000,135720,2
102,135360,136080,2
102,135720,136440,3
102,136080,136800,3
102,136440,137160,2
102,136800,137520,2
102,137160,137880,2
102,137520,138240,3
102,137880,138600,3
102,138240,138960,2
102,138600,139320,2
102,138960,139680,3
102,139320,140040,3
102,139680,140400,2
102,140040,140760,2
102,140400,141120,2
102,140760,141480,3
102,141120,141840,3
102,141480,142200,2
102,141840,142560,2
102,142200,142920,2
102,142560,143280,3
102,142920,143640,3
102,143280,144000,2
102,143640,144360,2
102,144000,144720,3
102,144360,145080,3
102,144720,145440,2
102,145080,145800,2
102,145440,146160,2
102,145800,146520,3
102,146160,146880,3
102,146520,147240,2
102,146880,147600,2
102,147240,147960,2
102,147600,148320,3
102,147960,148680,3
102,148320,149040,2
102,148680,149400,2
102,149040,149760,3
102,149400,150120,3
102,149760,150480,2
102,150120,150840,2
102,150480,151200,2
102,150840,151560,2
102,151200,151920,3
102,151560,152280,3
102,151920,152640,2
102,152280,153000,2
102,152640,153360,3
102,153000,153720,3
102,153360,154080,2
102,153720,154440,2
102,154080,154800,2
102,154440,155160,3
102,154800,155520,3
102,155160,155880,2
102,155520,156240,2
102,155880,156600,2
102,156240,156960,3
102,156600,157320,3
102,156960,157680,2
102,157320,158040,2
102,157680,158400,3
102,158040,158760,3
102,158400,159120,2
102,158760,159480,2
102,159120,159840,2
102,159480,160200,3
102,159840,160560,3
102,160200,160920,2
102,160560,161280,2
102,160920,161640,2
102,161280,162000,3
102,161640,162360,3
102,162000,162720,2
102,162360,163080,2
102,162720,163440,2
102,163080,163800,3
102,163440,164160,3
102,163800,164520,2
102,164160,164880,2
102,164520,165240,2
102,164880,165600,3
102,165240,165960,3
102,165600,166320,2
102,165960,166680,2
102,166320,167040,3
102,166680,167400,3
102,167040,167760,2
102,167400,168120,2
102,167760,168480,2
102,168120,168840,3
102,168480,169200,3
102,168840,169560,2
102,169200,169920,2
102,169560,170280,2
102,169920,170640,3
102,170280,171000,3
102,170640,171360,2
102,171000,171720,2
102,171360,172080,2
102,171720,172440,3
102,172080,172800,3
102,172440,173160,2
102,172800,173520,2
102,173160,173880,2
102,173520,174240,3
102,173880,174600,3
102,174240,174960,2
102,174600,175320,2
102,174960,175680,3
102,175320,176040,3
102,175680,176400,2
102,176040,176760,2
102,176400,177120,2
102,176760,177480,3
102,177120,177840,3
102,177480,178200,2
102,177840,178560,2
102,178200,178920,2
102,178560,179280,3
102,178920,179640,3
102,179280,180000,2
102,179640,180360,2
102,180000,180720,2
102,180360,181080,3
102,180720,181440,3
102,181080,181800,2
102,181440,182160,2
102,181800,182520,3
102,182160,182880,3
102,182520,183240,2
102,182880,183600,2
102,183240,183960,2
102,183600,184320,3
102,183960,184680,3
102,184320,185040,2
102,184680,185400,2
102,185040,185760,2
102,185400,186120,3
102,185760,186480,3
102,186120,186840,2
102,186480,187200,2
102,186840,187560,2
102,187200,187920,3
102,187560,188280,3
102,187920,188640,2
102,188280,189000,2
102,188640,189360,2
102,189000,189720,3
102,189360,190080,3
102,189720,190440,2
102,190080,190800,2
102,190440,191160,3
102,190800,191520,3
102,191160,191880,2
102,191520,192240,2
102,191880,192600,2
102,192240,192960,3
102,192600,193320,3
102,192960,193680,2
102,193320,194040,2
102,193680,194400,2
102,194040,194760,3
102,194400,195120,3
102,194760,195480,2
102,195120,195840,2
102,195480,196200,2
102,195840,196560,3
102,196200,196920,3
102,196560,197280,2
102,196920,197640,2
102,197280,198000,2
102,197640,198360,3
102,198000,198720,3
102,198360,199080,2
102,198720,199440,2
102,199080,199800,3
102,199440,200160,3
102,199800,200520,2
102,200160,200880,2
102,200520,201240,2
102,200880,201600,3
102,201240,201960,3
102,201600,202320,2
102,201960,202680,2
102,202320,203040,2
102,202680,203400,3
102,203040,203760,3
102,203400,204120,2
102,203760,204480,2
102,204120,204840,2
102,204480,205200,3
102,204840,205560,3
102,205200,205920,2
102,205560,206280,2
102,205920,206640,2
102,206280,207000,3
102,206640,207360,3
102,207000,207720,2
102,207360,208080,3
102,207720,208440,3
102,208080,208800,2
102,208440,209160,2
102,208800,209520,2
102,209160,209880,3
102,209520,210240,3
102,209880,210600,2
102,210240,210960,2
102,210600,211320,2
102,210960,211680,3
102,211320,212040,3
102,211680,212400,2
102,212040,212760,2
102,212400,213120,3
102,212760,213480,3
102,213120,213840,2
102,213480,214200,2
102,213840,214560,2
102,214200,214920,3
102,214560,215280,3
102,214920,215640,2
102,215280,216000,2
102,215640,216360,2
102,216000,216720,3
102,216360,217080,3
102,216720,217440,2
102,217080,217800,2
102,217440,218160,2
102,217800,218520,3
102,218160,218880,3
102,218520,219240,2
102,218880,219600,2
102,219240,219960,2
102,219600,220320,3
102,219960,220680,3
102,220320,221040,2
102,220680,221400,2
102,221040,221760,3
102,221400,222120,3
102,221760,222480,2
102,222120,222840,2
102,222480,223200,2
102,222840,223560,3
102,223200,223920,3
102,223560,224280,2
102,223920,224640,2
102,224280,225000,2
102,224640,225360,3
102,225000,225720,3
102,225360,226080,2
102,225720,226440,2
102,226080,226800,2
102,226440,227160,3
102,226800,227520,3
102,227160,227880,2
102,227520,228240,2
102,227880,228600,2
102,228240,228960,3
102,228600,229320,3
102,228960,229680,2
102,229320,230040,2
102,229680,230400,2
102,230040,230760,3
102,230400,231120,3
102,230760,231480,2
102,231120,231840,2
102,231480,232200,3
102,231840,232560,3
102,232200,232920,2
102,232560,233280,2
102,232920,233640,2
102,233280,234000,3
102,233640,234360,3
102,234000,234720,2
102,234360,235080,2
102,234720,235440,2
102,235080,235800,3
102,235440,236160,3
102,235800,236520,2
102,236160,236880,2
102,236520,237240,2
102,236880,237600,3
102,237240,237960,3
102,237600,238320,2
102,237960,238680,2
102,238320,239040,3
102,238680,239400,3
102,239040,239760,2
102,239400,240120,2
102,239760,240480,2
102,240120,240840,3
102,240480,241200,3
102,240840,241560,2
102,241200,241920,2
102,241560,242280,2
102,241920,242640,3
102,242280,243000,3
102,242640,243360,2
102,243000,243720,2
102,243360,244080,2
102,243720,244440,3
102,244080,244800,3
102,244440,245160,2
102,244800,245520,2
102,245160,245880,2
102,245520,246240,3
102,245880,246600,3
102,246240,246960,2
102,246600,247320,2
102,246960,247680,3
102,247320,248040,3
102,247680,248400,2
102,248040,248760,2
102,248400,249120,2
102,248760,249480,3
102,249120,249840,3
102,249480,250200,2
102,249840,250560,2
102,250200,250920,2
102,250560,251280,3
102,250920,251640,3
102,251280,252000,2
102,251640,252360,2
102,252000,252720,2
102,252360,253080,3
102,252720,253440,3
102,253080,253800,2
102,253440,254160,2
102,253800,254520,2
102,254160,254880,3
102,254520,255240,3
102,254880,255600,2
102,255240,255960,2
102,255600,256320,3
102,255960,256680,3
102,256320,257040,2
102,256680,257400,2
102,257040,257760,2
102,257400,258120,3
102,257760,258480,3
102,258120,258840,2
102,258480,259200,2
102,258840,259560,2
102,259200,259920,3
102,259560,260280,3
102,259920,260640,2
102,260280,261000,2
102,260640,261360,2
102,261000,261720,3
102,261360,262080,3
102,261720,262440,2
102,262080,262800,2
102,262440,263160,2
102,262800,263520,3
102,263160,263880,3
102,263520,264240,2
102,263880,264600,2
102,264240,264960,3
102,264600,265320,3
102,264960,265680,2
102,265320,266040,2
102,265680,266400,2
102,266040,266760,3
102,266400,267120,3
102,266760,267480,2
102,267120,267840,2
102,267480,268200,2
102,267840,268560,3
102,268200,268920,3
102,268560,269280,2
102,268920,269640,2
102,269280,270000,2
102,269640,270360,3
102,270000,270720,3
102,270360,271080,2
102,270720,271440,2
102,271080,271800,2
102,271440,272160,3
102,271800,272520,3
102,272160,272880,2
102,272520,273240,2
102,272880,273600,3
102,273240,273960,3
102,273600,274320,2
102,273960,274680,2
102,274320,275040,2
102,274680,275400,3
102,275040,275760,3
102,275400,276120,2
102,275760,276480,2
102,276120,276840,3
102,276480,277200,3
102,276840,277560,2
102,277200,277920,2
102,277560,278280,2
102,277920,278640,2
102,278280,279000,3
102,278640,279360,3
102,279000,279720,2
102,279360,280080,2
102,279720,280440,3
102,280080,280800,3
102,280440,281160,2
102,280800,281520,2
102,281160,281880,2
102,281520,282240,3
102,281880,282600,3
102,282240,282960,2
102,282600,283320,2
102,282960,283680,2
102,283320,284040,3
102,283680,284400,3
102,284040,284760,2
102,284400,285120,2
102,284760,285480,2
102,285120,285840,3
102,285480,286200,3
102,285840,286560,2
102,286200,286920,2
102,286560,287280,2
102,286920,287640,3
102,287280,288000,3
102,287640,288360,2
102,288000,288720,2
102,288360,289080,3
102,288720,289440,3
102,289080,289800,2
102,289440,290160,2
102,289800,290520,2
102,290160,290880,3
102,290520,291240,3
102,290880,291600,2
102,291240,291960,2
102,291600,292320,2
102,291960,292680,3
102,292320,293040,3
102,292680,293400,2
102,293040,293760,2
102,293400,294120,2
102,293760,294480,3
102,294120,294840,3
102,294480,295200,2
102,294840,295560,2
102,295200,295920,2
102,295560,296280,3
102,295920,296640,3
102,296280,297000,2
102,296640,297360,2
102,297000,297720,3
102,297360,298080,3
102,297720,298440,2
102,298080,298800,2
102,298440,299160,2
102,298800,299520,3
102,299160,299880,3
102,299520,300240,2
102,299880,300600,2
102,300240,300960,2
102,300600,301320,3
102,300960,301680,3
102,301320,302040,2
102,301680,302400,2
102,302040,302760,3
102,302400,303120,3
102,302760,303480,2
102,303120,303840,2
102,303480,304200,2
102,303840,304560,3
102,304200,304920,3
102,304560,305280,2
102,304920,305640,2
102,305280,306000,2
102,305640,306360,3
102,306000,306720,3
102,306360,307080,2
102,306720,307440,2
102,307080,307800,2
102,307440,308160,3
102,307800,308520,3
102,308160,308880,2
102,308520,309240,2
102,308880,309600,3
102,309240,309960,3
102,309600,310320,2
102,309960,310680,2
102,310320,311040,2
102,310680,311400,2
102,311040,311760,3
102,311400,312120,3
102,311760,312480,2
102,312120,312840,2
102,312480,313200,3
102,312840,313560,3
102,313200,313920,2
102,313560,314280,2
102,313920,314640,2
102,314280,315000,3
102,314640,315360,3
102,315000,315720,2
102,315360,316080,2
102,315720,316440,2
102,316080,316800,3
102,316440,317160,3
102,316800,317520,2
102,317160,317880,2
102,317520,318240,2
102,317880,318600,3
102,318240,318960,3
102,318600,319320,2
102,318960,319680,2
102,319320,320040,3
102,319680,320400,3
102,320040,320760,2
102,320400,321120,2
102,320760,321480,2
102,321120,321840,2
102,321480,322200,3
102,321840,322560,3
102,322200,322920,2
102,322560,323280,2
102,322920,323640,3
102,323280,324000,3
102,323640,324360,2
102,324000,324720,2
102,324360,325080,2
102,324720,325440,3
102,325080,325800,3
102,325440,326160,2
102,325800,326520,2
102,326160,326880,3
102,326520,327240,3
102,326880,327600,2
102,327240,327960,2
102,327600,328320,2
102,327960,328680,3
102,328320,329040,3
102,328680,329400,2
102,329040,329760,2
102,329400,330120,2
102,329760,330480,3
102,330120,330840,3
102,330480,331200,2
102,330840,331560,2
102,331200,331920,2
102,331560,332280,3
102,331920,332640,3
102,332280,333000,2
102,332640,333360,2
102,333000,333720,2
102,333360,334080,3
102,333720,334440,3
102,334080,334800,2
102,334440,335160,2
102,334800,335520,3
102,335160,335880,3
102,335520,336240,2
102,335880,336600,2
102,336240,336960,2
102,336600,337320,3
102,336960,337680,3
102,337320,338040,2
102,337680,338400,2
102,338040,338760,2
102,338400,339120,3
102,338760,339480,3
102,339120,339840,2
102,339480,340200,2
102,339840,340560,2
102,340200,340920,3
102,340560,341280,3
102,340920,341640,2
102,341280,342000,2
102,341640,342360,2
102,342000,342720,3
102,342360,343080,3
102,342720,343440,2
102,343080,343800,2
102,343440,344160,3
102,343800,344520,3
102,344160,344880,2
102,344520,345240,2
102,344880,345600,2
102,345240,345960,3
102,345600,346320,3
102,345960,346680,2
102,346320,347040,2
102,346680,347400,2
102,347040,347760,3
102,347400,348120,3
102,347760,348480,2
102,348120,348840,2
102,348480,349200,2
102,348840,349560,3
102,349200,349920,3
102,349560,350280,2
102,349920,350640,2
102,350280,351000,2
102,350640,351360,3
102,351000,351720,3
102,351360,352080,2
102,351720,352440,2
102,352080,352800,3
102,352440,353160,3
102,352800,353520,2
102,353160,353880,2
102,353520,354240,2
102,353880,354600,3
102,354240,354960,3
102,354600,355320,2
102,354960,355680,2
102,355320,356040,2
102,355680,356400,3
102,356040,356760,3
102,356400,357120,2
102,356760,357480,2
102,357120,357840,2
102,357480,358200,3
102,357840,358560,3
102,358200,358920,2
102,358560,359280,2
102,358920,359640,2
102,359280,360000,3
102,359640,360360,3
102,360000,360720,2
102,360360,361080,2
102,360720,361440,3
102,361080,361800,3
102,361440,362160,2
102,361800,362520,2
102,362160,362880,2
102,362520,363240,3
102,362880,363600,3
102,363240,363960,2
102,363600,364320,2
102,363960,364680,2
102,364320,365040,3
102,364680,365400,3
102,365040,365760,2
102,365400,366120,2
102,365760,366480,2
102,366120,366840,3
102,366480,367200,3
102,366840,367560,2
102,367200,367920,2
102,367560,368280,3
102,367920,368640,3
102,368280,369000,2
102,368640,369360,2
102,369000,369720,2
102,369360,370080,3
102,369720,370440,3
102,370080,370800,2
102,370440,371160,2
102,370800,371520,2
102,371160,371880,2
102,371520,372240,3
102,371880,372600,3
102,372240,372960,2
102,372600,373320,2
102,372960,373680,3
102,373320,374040,3
102,373680,374400,2
102,374040,374760,2
102,374400,375120,2
102,374760,375480,3
102,375120,375840,3
102,375480,376200,2
102,375840,376560,2
102,376200,376920,3
102,376560,377280,3
102,376920,377640,2
102,377280,378000,2
102,377640,378360,2
102,378000,378720,3
102,378360,379080,3
102,378720,379440,2
102,379080,379800,2
102,379440,380160,2
102,379800,380520,3
102,380160,380880,3
102,380520,381240,2
102,380880,381600,2
102,381240,381960,2
102,381600,382320,3
102,381960,382680,3
102,382320,383040,2
102,382680,383400,2
102,383040,383760,2
102,383400,384120,3
102,383760,384480,3
102,384120,384840,2
102,384480,385200,2
102,384840,385560,3
102,385200,385920,3
102,385560,386280,2
102,385920,386640,2
102,386280,387000,2
102,386640,387360,3
102,387000,387720,3
102,387360,388080,2
102,387720,388440,2
102,388080,388800,2
102,388440,389160,3
102,388800,389520,3
102,389160,389880,2
102,389520,390240,2
102,389880,390600,2
102,390240,390960,3
102,390600,391320,3
102,390960,391680,2
102,391320,392040,2
102,391680,392400,2
102,392040,392760,3
102,392400,393120,3
102,392760,393480,2
102,393120,393840,2
102,393480,394200,3
102,393840,394560,3
102,394200,394920,2
102,394560,395280,2
102,394920,395640,2
102,395280,396000,3
102,395640,396360,3
102,396000,396720,2
102,396360,397080,2
102,396720,397440,2
102,397080,397800,3
102,397440,398160,3
102,397800,398520,2
102,398160,398880,2
102,398520,399240,2
102,398880,399600,3
102,399240,399960,3
102,399600,400320,2
102,399960,400680,2
102,400320,401040,2
102,400680,401400,3
102,401040,401760,3
102,401400,402120,2
102,401760,402480,2
102,402120,402840,3
102,402480,403200,3
102,402840,403560,2
102,403200,403920,2
102,403560,404280,2
102,403920,404640,3
102,404280,405000,3
102,404640,405360,2
102,405000,405720,2
102,405360,406080,2
102,405720,406440,3
102,406080,406800,3
102,406440,407160,2
102,406800,407520,2
102,407160,407880,2
102,407520,408240,3
102,407880,408600,3
102,408240,408960,2
102,408600,409320,2
102,408960,409680,2
102,409320,410040,3
102,409680,410400,3
102,410040,410760,2
102,410400,411120,2
102,410760,411480,3
102,411120,411840,3
102,411480,412200,2
102,411840,412560,2
102,412200,412920,2
102,412560,413280,3
102,412920,413640,3
102,413280,414000,2
102,413640,414360,2
102,414000,414720,2
102,414360,415080,3
102,414720,415440,3
102,415080,415800,2
102,415440,416160,2
102,415800,416520,2
102,416160,416880,3
102,416520,417240,3
102,416880,417600,2
102,417240,417960,2
102,417600,418320,2
102,417960,418680,3
102,418320,419040,3
102,418680,419400,2
102,419040,419760,2
102,419400,420120,3
102,419760,420480,3
102,420120,420840,2
102,420480,421200,2
102,420840,421560,2
102,421200,421920,3
102,421560,422280,3
102,421920,422640,2
102,422280,423000,2
102,422640,423360,2
102,423000,423720,3
102,423360,424080,3
102,423720,424440,2
102,424080,424800,2
102,424440,425160,2
102,424800,425520,3
102,425160,425880,3
102,425520,426240,2
102,425880,426600,2
102,426240,426960,3
102,426600,427320,3
102,426960,427680,2
102,427320,428040,2
102,427680,428400,2
102,428040,428760,3
102,428400,429120,3
102,428760,429480,2
102,429120,429840,2
102,429480,430200,2
102,429840,430560,3
102,430200,430920,3
102,430560,431280,2
102,430920,431640,2
102,431280,432000,2
102,431640,432360,3
102,432000,432720,3
102,432360,433080,2
102,432720,433440,2
102,433080,433800,2
102,433440,434160,3
102,433800,434520,3
102,434160,434880,2
102,434520,435240,2
102,434880,435600,3
102,435240,435960,3
102,435600,436320,2
102,435960,436680,2
102,436320,437040,2
102,436680,437400,3
102,437040,437760,3
102,437400,438120,2
102,437760,438480,2
102,438120,438840,2
102,438480,439200,3
102,438840,439560,3
102,439200,439920,2
102,439560,440280,2
102,439920,440640,2
102,440280,441000,3
102,440640,441360,3
102,441000,441720,2
102,441360,442080,2
102,441720,442440,2
102,442080,442800,3
102,442440,443160,3
102,442800,443520,2
102,443160,443880,2
102,443520,444240,3
102,443880,444600,3
102,444240,444960,2
102,444600,445320,2
102,444960,445680,2
102,445320,446040,3
102,445680,446400,3
102,446040,446760,2
102,446400,447120,2
102,446760,447480,2
102,447120,447840,3
102,447480,448200,3
102,447840,448560,2
102,448200,448920,2
102,448560,449280,2
102,448920,449640,3
102,449280,450000,3
102,449640,450360,2
102,450000,450720,2
102,450360,451080,2
102,450720,451440,3
102,451080,451800,3
102,451440,452160,2
102,451800,452520,2
102,452160,452880,3
102,452520,453240,3
102,452880,453600,2
102,453240,453960,2
102,453600,454320,2
102,453960,454680,3
102,454320,455040,3
102,454680,455400,2
102,455040,455760,2
102,455400,456120,2
102,455760,456480,3
102,456120,456840,3
102,456480,457200,2
102,456840,457560,2
102,457200,457920,2
102,457560,458280,3
102,457920,458640,3
102,458280,459000,2
102,458640,459360,2
102,459000,459720,2
102,459360,460080,3
102,459720,460440,3
102,460080,460800,2
102,460440,461160,2
102,460800,461520,3
102,461160,461880,3
102,461520,462240,2
102,461880,462600,2
102,462240,462960,2
102,462600,463320,3
102,462960,463680,3
102,463320,464040,2
102,463680,464400,2
102,464040,464760,2
102,464400,465120,3
102,464760,465480,3
102,465120,465840,2
102,465480,466200,2
102,465840,466560,2
102,466200,466920,3
102,466560,467280,3
102,466920,467640,2
102,467280,468000,2
102,467640,468360,2
102,468000,468720,3
102,468360,469080,3
102,468720,469440,2
102,469080,469800,2
102,469440,470160,3
102,469800,470520,3
102,470160,470880,2
102,470520,471240,2
102,470880,471600,2
102,471240,471960,3
102,471600,472320,3
102,471960,472680,2
102,472320,473040,2
102,472680,473400,2
102,473040,473760,3
102,473400,474120,3
102,473760,474480,2
102,474120,474840,2
102,474480,475200,2
102,474840,475560,3
102,475200,475920,3
102,475560,476280,2
102,475920,476640,2
102,476280,477000,2
102,476640,477360,3
102,477000,477720,3
102,477360,478080,2
102,477720,478440,2
102,478080,478800,3
102,478440,479160,3
102,478800,479520,2
102,479160,479880,2
102,479520,480240,2
102,479880,480600,3
102,480240,480960,3
102,480600,481320,2
102,480960,481680,2
102,481320,482040,2
102,481680,482400,3
102,482040,482760,3
102,482400,483120,2
102,482760,483480,2
102,483120,483840,2
102,483480,484200,3
102,483840,484560,3
102,484200,484920,2
102,484560,485280,2
102,484920,485640,2
102,485280,486000,3
102,485640,486360,3
102,486000,486720,2
102,486360,487080,2
102,486720,487440,3
102,487080,487800,3
102,487440,488160,2
102,487800,488520,2
102,488160,488880,2
102,488520,489240,3
102,488880,489600,3
102,489240,489960,2
102,489600,490320,2
102,489960,490680,2
102,490320,491040,3
102,490680,491400,3
102,491040,491760,2
102,491400,492120,2
102,491760,492480,2
102,492120,492840,3
102,492480,493200,3
102,492840,493560,2
102,493200,493920,2
102,493560,494280,3
102,493920,494640,3
102,494280,495000,2
102,494640,495360,2
102,495000,495720,2
102,495360,496080,3
102,495720,496440,3
102,496080,496800,2
102,496440,497160,2
102,496800,497520,2
102,497160,497880,3
102,497520,498240,3
102,497880,498600,2
102,498240,498960,2
102,498600,499320,2
102,498960,499680,3
102,499320,500040,3
102,499680,500400,2
102,500040,500760,2
102,500400,501120,2
102,500760,501480,3
102,501120,501840,3
102,501480,502200,2
102,501840,502560,2
102,502200,502920,3
102,502560,503280,3
102,502920,503640,2
102,503280,504000,2
102,503640,504360,2
102,504000,504720,3
102,504360,505080,3
102,504720,505440,2
102,505080,505800,2
102,505440,506160,2
102,505800,506520,3
102,506160,506880,3
102,506520,507240,2
102,506880,507600,2
102,507240,507960,3
102,507600,508320,3
102,507960,508680,2
102,508320,509040,2
102,508680,509400,3
102,509040,509760,3
102,509400,510120,2
102,509760,510480,2
102,510120,510840,2
102,510480,511200,3
102,510840,511560,3
102,511200,511920,2
102,511560,512280,2
102,511920,512640,3
102,512280,513000,3
102,512640,513360,2
102,513000,513720,2
102,513360,514080,2
102,513720,514440,3
102,514080,514800,3
102,514440,515160,2
102,514800,515520,2
102,515160,515880,2
102,515520,516240,3
102,515880,516600,3
102,516240,516960,2
102,516600,517320,2
102,516960,517680,2
102,517320,518040,3
102,517680,518400,3
102,518040,518760,2
102,518400,519120,2
102,518760,519480,3
102,519120,519840,3
102,519480,520200,2
102,519840,520560,2
102,520200,520920,2
102,520560,521280,3
102,520920,521640,3
102,521280,522000,2
102,521640,522360,2
102,522000,522720,2
102,522360,523080,3
102,522720,523440,3
102,523080,523800,2
102,523440,524160,2
102,523800,524520,2
102,524160,524880,3
102,524520,525240,3
102,524880,525600,2
102,525240,525960,2
102,525600,526320,2
102,525960,526680,3
102,526320,527040,3
102,526680,527400,2
102,527040,527760,2
102,527400,528120,2
102,527760,528480,3
102,528120,528840,3
102,528480,529200,2
102,528840,529560,2
102,529200,529920,3
102,529560,530280,3
102,529920,530640,2
102,530280,531000,2
102,530640,531360,2
102,531000,531720,3
102,531360,532080,3
102,531720,532440,2
102,532080,532800,2
102,532440,533160,2
102,532800,533520,3
102,533160,533880,3
102,533520,534240,2
102,533880,534600,2
102,534240,534960,2
102,534600,535320,3
102,534960,535680,3
102,535320,536040,2
102,535680,536400,2
102,536040,536760,2
102,536400,537120,3
102,536760,537480,3
102,537120,537840,2
102,537480,538200,2
102,537840,538560,3
102,538200,538920,3
102,538560,539280,2
102,538920,539640,2
102,539280,540000,2
102,539640,540360,3
102,540000,540720,3
102,540360,541080,2
102,540720,541440,2
102,541080,541800,2
102,541440,542160,3
102,541800,542520,3
102,542160,542880,2
102,542520,543240,2
102,542880,543600,2
102,543240,543960,3
102,543600,544320,3
102,543960,544680,2
102,544320,545040,2
102,544680,545400,3
102,545040,545760,3
102,545400,546120,2
102,545760,546480,2
102,546120,546840,2
102,546480,547200,3
102,546840,547560,3
102,547200,547920,2
102,547560,548280,2
102,547920,548640,2
102,548280,549000,3
102,548640,549360,3
102,549000,549720,2
102,549360,550080,2
102,549720,550440,2
102,550080,550800,3
102,550440,551160,3
102,550800,551520,2
102,551160,551880,2
102,551520,552240,2
102,551880,552600,3
102,552240,552960,3
102,552600,553320,2
102,552960,553680,2
102,553320,554040,3
102,553680,554400,3
102,554040,554760,2
102,554400,555120,2
102,554760,555480,2
102,555120,555840,3
102,555480,556200,3
102,555840,556560,2
102,556200,556920,2
102,556560,557280,2
102,556920,557640,3
102,557280,558000,3
102,557640,558360,2
102,558000,558720,2
102,558360,559080,2
102,558720,559440,3
102,559080,559800,3
102,559440,560160,2
102,559800,560520,2
102,560160,560880,2
102,560520,561240,3
102,560880,561600,3
102,561240,561960,2
102,561600,562320,2
102,561960,562680,3
102,562320,563040,3
102,562680,563400,2
102,563040,563760,2
102,563400,564120,3
102,563760,564480,3
102,564120,564840,2
102,564480,565200,2
102,564840,565560,2
102,565200,565920,3
102,565560,566280,3
102,565920,566640,2
102,566280,567000,2
102,566640,567360,3
102,567000,567720,3
102,567360,568080,2
102,567720,568440,2
102,568080,568800,2
102,568440,569160,3
102,568800,569520,3
102,569160,569880,2
102,569520,570240,2
102,569880,570600,2
102,570240,570960,3
102,570600,571320,3
102,570960,571680,2
102,571320,572040,2
102,571680,572400,2
102,572040,572760,3
102,572400,573120,3
102,572760,573480,2
102,573120,573840,2
102,573480,574200,2
102,573840,574560,3
102,574200,574920,3
102,574560,575280,2
102,574920,575640,2
102,575280,576000,3
102,575640,576360,3
102,576000,576720,2
102,576360,577080,2
102,576720,577440,2
102,577080,577800,3
102,577440,578160,3
102,577800,578520,2
102,578160,578880,2
102,578520,579240,2
102,578880,579600,3
102,579240,579960,3
102,579600,580320,2
102,579960,580680,2
102,580320,581040,2
102,580680,581400,3
102,581040,581760,3
102,581400,582120,2
102,581760,582480,2
102,582120,582840,2
102,582480,583200,3
102,582840,583560,3
102,583200,583920,2
102,583560,584280,2
102,583920,584640,2
102,584280,585000,3
102,584640,585360,3
102,585000,585720,2
102,585360,586080,2
102,585720,586440,3
102,586080,586800,3
102,586440,587160,2
102,586800,587520,2
102,587160,587880,2
102,587520,588240,3
102,587880,588600,3
102,588240,588960,2
102,588600,589320,2
102,588960,589680,2
102,589320,590040,3
102,589680,590400,3
102,590040,590760,2
102,590400,591120,2
102,590760,591480,2
102,591120,591840,3
102,591480,592200,3
102,591840,592560,2
102,592200,592920,2
102,592560,593280,3
102,592920,593640,3
102,593280,594000,2
102,593640,594360,2
102,594000,594720,2
102,594360,595080,3
102,594720,595440,3
102,595080,595800,2
102,595440,596160,2
102,595800,596520,2
102,596160,596880,3
102,596520,597240,3
102,596880,597600,2
102,597240,597960,2
102,597600,598320,2
102,597960,598680,3
102,598320,599040,3
102,598680,599400,2
102,599040,599760,2
102,599400,600120,3
102,599760,600480,3
102,600120,600840,2
102,600480,601200,2
102,600840,601560,2
102,601200,601920,3
102,601560,602280,3
102,601920,602640,2
102,602280,603000,2
102,602640,603360,2
102,603000,603720,3
102,603360,604080,3
102,603720,604440,2
102,604080,604800,2
102,604440,605160,2
102,604800,605520,3
102,605160,605880,3
102,605520,606240,2
102,605880,606600,2
102,606240,606960,3
102,606600,607320,3
102,606960,607680,2
102,607320,608040,2
102,607680,608400,2
102,608040,608760,3
102,608400,609120,3
102,608760,609480,2
102,609120,609840,2
102,609480,610200,2
102,609840,610560,3
102,610200,610920,3
102,610560,611280,2
102,610920,611640,2
102,611280,612000,2
102,611640,612360,3
102,612000,612720,3
102,612360,613080,2
102,612720,613440,2
102,613080,613800,3
102,613440,614160,3
102,613800,614520,2
102,614160,614880,2
102,614520,615240,2
102,614880,615600,3
102,615240,615960,3
102,615600,616320,2
102,615960,616680,2
102,616320,617040,2
102,616680,617400,3
102,617040,617760,3
102,617400,618120,2
102,617760,618480,2
102,618120,618840,2
102,618480,619200,3
102,618840,619560,3
102,619200,619920,2
102,619560,620280,2
102,619920,620640,3
102,620280,621000,3
102,620640,621360,2
102,621000,621720,2
102,621360,622080,2
102,621720,622440,3
102,622080,622800,3
102,622440,623160,2
102,622800,623520,2
102,623160,623880,2
102,623520,624240,3
102,623880,624600,3
102,624240,624960,2
102,624600,625320,2
102,624960,625680,2
102,625320,626040,3
102,625680,626400,3
102,626040,626760,2
102,626400,627120,2
102,626760,627480,2
102,627120,627840,3
102,627480,628200,3
102,627840,628560,2
102,628200,628920,2
102,628560,629280,3
102,628920,629640,3
102,629280,630000,2
102,629640,630360,2
102,630000,630720,2
102,630360,631080,3
102,630720,631440,3
102,631080,631800,2
102,631440,632160,2
102,631800,632520,2
102,632160,632880,3
102,632520,633240,3
102,632880,633600,2
102,633240,633960,2
102,633600,634320,2
102,633960,634680,3
102,634320,635040,3
102,634680,635400,2
102,635040,635760,2
102,635400,636120,2
102,635760,636480,3
102,636120,636840,3
102,636480,637200,2
102,636840,637560,2
102,637200,637920,3
102,637560,638280,3
102,637920,638640,2
102,638280,639000,2
102,638640,639360,2
102,639000,639720,3
102,639360,640080,3
102,639720,640440,2
102,640080,640800,2
102,640440,641160,2
102,640800,641520,3
102,641160,641880,3
102,641520,642240,2
102,641880,642600,2
102,642240,642960,2
102,642600,643320,3
102,642960,643680,3
102,643320,644040,2
102,643680,644400,2
102,644040,644760,2
102,644400,645120,3
102,644760,645480,3
102,645120,645840,2
102,645480,646200,2
102,645840,646560,3
102,646200,646920,3
102,646560,647280,2
102,646920,647640,2
102,647280,648000,2
102,647640,648360,3
102,648000,648720,3
102,648360,649080,2
102,648720,649440,2
102,649080,649800,2
103,0,720,2
103,360,1080,2
103,720,1440,2
103,1080,1800,3
103,1440,2160,3
103,1800,2520,2
103,2160,2880,2
103,2520,3240,2
103,2880,3600,2
103,3240,3960,3
103,3600,4320,3
103,3960,4680,2
103,4320,5040,2
103,4680,5400,2
103,5040,5760,2
103,5400,6120,2
103,5760,6480,2
103,6120,6840,2
103,6480,7200,3
103,6840,7560,3
103,7200,7920,2
103,7560,8280,2
103,7920,8640,2
103,8280,9000,2
103,8640,9360,2
103,9000,9720,3
103,9360,10080,3
103,9720,10440,2
103,10080,10800,2
103,10440,11160,2
103,10800,11520,2
103,11160,11880,3
103,11520,12240,3
103,11880,12600,2
103,12240,12960,2
103,12600,13320,3
103,12960,13680,3
103,13320,14040,2
103,13680,14400,2
103,14040,14760,2
103,14400,15120,3
103,14760,15480,3
103,15120,15840,2
103,15480,16200,2
103,15840,16560,2
103,16200,16920,3
103,16560,17280,3
103,16920,17640,2
103,17280,18000,2
103,17640,18360,2
103,18000,18720,2
103,18360,19080,3
103,18720,19440,3
103,19080,19800,2
103,19440,20160,2
103,19800,20520,2
103,20160,20880,2
103,20520,21240,3
103,20880,21600,3
103,21240,21960,2
103,21600,22320,2
103,21960,22680,2
103,22320,23040,3
103,22680,23400,3
103,23040,23760,2
103,23400,24120,2
103,23760,24480,2
103,24120,24840,2
103,24480,25200,3
103,24840,25560,3
103,25200,25920,2
103,25560,26280,2
103,25920,26640,2
103,26280,27000,3
103,26640,27360,3
103,27000,27720,2
103,27360,28080,2
103,27720,28440,2
103,28080,28800,3
103,28440,29160,3
103,28800,29520,2
103,29160,29880,2
103,29520,30240,2
103,29880,30600,3
103,30240,30960,3
103,30600,31320,2
103,30960,31680,2
103,31320,32040,2
103,31680,32400,2
103,32040,32760,3
103,32400,33120,3
103,32760,33480,2
103,33120,33840,2
103,33480,34200,2
103,33840,34560,2
103,34200,34920,2
103,34560,35280,3
103,34920,35640,3
103,35280,36000,2
103,35640,36360,2
103,36000,36720,2
103,36360,37080,2
103,36720,37440,3
103,37080,37800,3
103,37440,38160,2
103,37800,38520,2
103,38160,38880,2
103,38520,39240,2
103,38880,39600,3
103,39240,39960,3
103,39600,40320,2
103,39960,40680,2
103,40320,41040,2
103,40680,41400,2
103,41040,41760,3
103,41400,42120,3
103,41760,42480,2
103,42120,42840,2
103,42480,43200,2
103,42840,43560,3
103,43200,43920,3
103,43560,44280,2
103,43920,44640,2
103,44280,45000,2
103,44640,45360,3
103,45000,45720,3
103,45360,46080,2
103,45720,46440,2
103,46080,46800,3
103,46440,47160,3
103,46800,47520,2
103,47160,47880,2
103,47520,48240,2
103,47880,48600,3
103,48240,48960,3
103,48600,49320,2
103,48960,49680,2
103,49320,50040,3
103,49680,50400,3
103,50040,50760,2
103,50400,51120,2
103,50760,51480,2
103,51120,51840,2
103,51480,52200,3
103,51840,52560,3
103,52200,52920,2
103,52560,53280,2
103,52920,53640,2
103,53280,54000,3
103,53640,54360,3
103,54000,54720,2
103,54360,55080,2
103,54720,55440,3
103,55080,55800,3
103,55440,56160,2
103,55800,56520,2
103,56160,56880,3
103,56520,57240,3
103,56880,57600,2
103,57240,57960,2
103,57600,58320,2
103,57960,58680,2
103,58320,59040,3
103,58680,59400,3
103,59040,59760,2
103,59400,60120,2
103,59760,60480,2
103,60120,60840,2
103,60480,61200,2
103,60840,61560,3
103,61200,61920,3
103,61560,62280,2
103,61920,62640,2
103,62280,63000,2
103,62640,63360,2
103,63000,63720,3
103,63360,64080,3
103,63720,64440,2
103,64080,64800,2
103,64440,65160,2
103,64800,65520,2
103,65160,65880,2
103,65520,66240,3
103,65880,66600,3
103,66240,66960,2
103,66600,67320,2
103,66960,67680,2
103,67320,68040,2
103,67680,68400,2
103,68040,68760,2
103,68400,69120,3
103,68760,69480,3
103,69120,69840,2
103,69480,70200,2
103,69840,70560,2
103,70200,70920,2
103,70560,71280,2
103,70920,71640,2
103,71280,72000,3
103,71640,72360,3
103,72000,72720,2
103,72360,73080,2
103,72720,73440,2
103,73080,73800,2
103,73440,74160,2
103,73800,74520,3
103,74160,74880,3
103,74520,75240,2
103,74880,75600,2
103,75240,75960,2
103,75600,76320,3
103,75960,76680,3
103,76320,77040,2
103,76680,77400,2
103,77040,77760,2
103,77400,78120,2
103,77760,78480,3
103,78120,78840,3
103,78480,79200,2
103,78840,79560,2
103,79200,79920,3
103,79560,80280,3
103,79920,80640,2
103,80280,81000,2
103,80640,81360,2
103,81000,81720,3
103,81360,82080,3
103,81720,82440,2
103,82080,82800,2
103,82440,83160,2
103,82800,83520,3
103,83160,83880,3
103,83520,84240,2
103,83880,84600,2
103,84240,84960,2
103,84600,85320,3
103,84960,85680,3
103,85320,86040,2
103,85680,86400,2
103,86040,86760,3
103,86400,87120,3
103,86760,87480,2
103,87120,87840,2
103,87480,88200,3
103,87840,88560,3
103,88200,88920,2
103,88560,89280,2
103,88920,89640,3
103,89280,90000,3
103,89640,90360,2
103,90000,90720,2
103,90360,91080,2
103,90720,91440,3
103,91080,91800,3
103,91440,92160,2
103,91800,92520,2
103,92160,92880,3
103,92520,93240,3
103,92880,93600,2
103,93240,93960,2
103,93600,94320,3
103,93960,94680,3
103,94320,95040,2
103,94680,95400,2
103,95040,95760,3
103,95400,96120,3
103,95760,96480,2
103,96120,96840,3
103,96480,97200,3
103,96840,97560,2
103,97200,97920,2
103,97560,98280,3
103,97920,98640,3
103,98280,99000,2
103,98640,99360,2
103,99000,99720,2
103,99360,100080,2
103,99720,100440,3
103,100080,100800,3
103,100440,101160,2
103,100800,101520,2
103,101160,101880,2
103,101520,102240,2
103,101880,102600,3
103,102240,102960,3
103,102600,103320,2
103,102960,103680,2
103,103320,104040,2
103,103680,104400,2
103,104040,104760,2
103,104400,105120,3
103,104760,105480,3
103,105120,105840,2
103,105480,106200,2
103,105840,106560,2
103,106200,106920,2
103,106560,107280,2
103,106920,107640,2
103,107280,108000,3
103,107640,108360,3
103,108000,108720,2
103,108360,109080,2
103,108720,109440,2
103,109080,109800,2
103,109440,110160,2
103,109800,110520,3
103,110160,110880,3
103,110520,111240,2
103,110880,111600,2
103,111240,111960,2
103,111600,112320,2
103,111960,112680,3
103,112320,113040,3
103,112680,113400,2
103,113040,113760,2
103,113400,114120,2
103,113760,114480,2
103,114120,114840,2
103,114480,115200,3
103,114840,115560,3
103,115200,115920,2
103,115560,116280,2
103,115920,116640,2
103,116280,117000,2
103,116640,117360,3
103,117000,117720,3
103,117360,118080,2
103,117720,118440,2
103,118080,118800,2
103,118440,119160,2
103,118800,119520,2
103,119160,119880,3
103,119520,120240,3
103,119880,120600,2
103,120240,120960,2
103,120600,121320,2
103,120960,121680,3
103,121320,122040,3
103,121680,122400,2
103,122040,122760,2
103,122400,123120,2
103,122760,123480,2
103,123120,123840,3
103,123480,124200,3
103,123840,124560,2
103,124200,124920,2
103,124560,125280,3
103,124920,125640,3
103,125280,126000,2
103,125640,126360,2
103,126000,126720,2
103,126360,127080,3
103,126720,127440,3
103,127080,127800,2
103,127440,128160,2
103,127800,128520,2
103,128160,128880,2
103,128520,129240,2
103,128880,129600,3
103,129240,129960,3
103,129600,130320,2
103,129960,130680,2
103,130320,131040,2
103,130680,131400,2
103,131040,131760,3
103,131400,132120,3
103,131760,132480,2
103,132120,132840,2
103,132480,133200,2
103,132840,133560,3
103,133200,133920,3
103,133560,134280,2
103,133920,134640,2
103,134280,135000,3
103,134640,135360,3
103,135000,135720,2
103,135360,136080,2
103,135720,136440,2
103,136080,136800,2
103,136440,137160,2
103,136800,137520,2
103,137160,137880,2
103,137520,138240,3
103,137880,138600,3
103,138240,138960,2
103,138600,139320,2
103,138960,139680,2
103,139320,140040,2
103,139680,140400,2
103,140040,140760,2
103,140400,141120,3
103,140760,141480,3
103,141120,141840,2
103,141480,142200,2
103,141840,142560,2
103,142200,142920,2
103,142560,143280,2
103,142920,143640,3
103,143280,144000,3
103,143640,144360,2
103,144000,144720,2
103,144360,145080,2
103,144720,145440,2
103,145080,145800,3
103,145440,146160,3
103,145800,146520,2
103,146160,146880,2
103,146520,147240,2
103,146880,147600,2
103,147240,147960,3
103,147600,148320,3
103,147960,148680,2
103,148320,149040,2
103,148680,149400,2
103,149040,149760,2
103,149400,150120,2
103,149760,150480,3
103,150120,150840,3
103,150480,151200,2
103,150840,151560,2
103,151200,151920,2
103,151560,152280,2
103,151920,152640,3
103,152280,153000,3
103,152640,153360,2
103,153000,153720,2
103,153360,154080,2
103,153720,154440,2
103,154080,154800,2
103,154440,155160,3
103,154800,155520,3
103,155160,155880,2
103,155520,156240,2
103,155880,156600,2
103,156240,156960,2
103,156600,157320,3
103,156960,157680,3
103,157320,158040,2
103,157680,158400,2
103,158040,158760,2
103,158400,159120,2
103,158760,159480,3
103,159120,159840,3
103,159480,160200,2
103,159840,160560,2
103,160200,160920,2
103,160560,161280,2
103,160920,161640,2
103,161280,162000,2
103,161640,162360,2
103,162000,162720,3
103,162360,163080,3
103,162720,163440,2
103,163080,163800,2
103,163440,164160,2
103,163800,164520,2
103,164160,164880,3
103,164520,165240,3
103,164880,165600,2
103,165240,165960,2
103,165600,166320,2
103,165960,166680,3
103,166320,167040,3
103,166680,167400,2
103,167040,167760,2
103,167400,168120,2
103,167760,168480,2
103,168120,168840,3
103,168480,169200,3
103,168840,169560,2
103,169200,169920,2
103,169560,170280,2
103,169920,170640,2
103,170280,171000,3
103,170640,171360,3
103,171000,171720,2
103,171360,172080,2
103,171720,172440,2
103,172080,172800,2
103,172440,173160,3
103,172800,173520,3
103,173160,173880,2
103,173520,174240,2
103,173880,174600,2
103,174240,174960,2
103,174600,175320,2
103,174960,175680,3
103,175320,176040,3
103,175680,176400,2
103,176040,176760,2
103,176400,177120,2
103,176760,177480,3
103,177120,177840,3
103,177480,178200,2
103,177840,178560,2
103,178200,178920,3
103,178560,179280,3
103,178920,179640,2
103,179280,180000,2
103,179640,180360,2
103,180000,180720,2
103,180360,181080,3
103,180720,181440,3
103,181080,181800,2
103,181440,182160,2
103,181800,182520,2
103,182160,182880,2
103,182520,183240,2
103,182880,183600,3
103,183240,183960,3
103,183600,184320,2
103,183960,184680,2
103,184320,185040,2
103,184680,185400,2
103,185040,185760,3
103,185400,186120,3
103,185760,186480,2
103,186120,186840,2
103,186480,187200,2
103,186840,187560,2
103,187200,187920,2
103,187560,188280,3
103,187920,188640,3
103,188280,189000,2
103,188640,189360,2
103,189000,189720,2
103,189360,190080,2
103,189720,190440,3
103,190080,190800,3
103,190440,191160,2
103,190800,191520,2
103,191160,191880,2
103,191520,192240,2
103,191880,192600,2
103,192240,192960,3
103,192600,193320,3
103,192960,193680,2
103,193320,194040,2
103,193680,194400,2
103,194040,194760,2
103,194400,195120,2
103,194760,195480,2
103,195120,195840,3
103,195480,196200,3
103,195840,196560,2
103,196200,196920,2
103,196560,197280,2
103,196920,197640,2
103,197280,198000,2
103,197640,198360,2
103,198000,198720,3
103,198360,199080,3
103,198720,199440,2
103,199080,199800,2
103,199440,200160,2
103,199800,200520,2
103,200160,200880,3
103,200520,201240,3
103,200880,201600,2
103,201240,201960,2
103,201600,202320,2
103,201960,202680,2
103,202320,203040,2
103,202680,203400,3
103,203040,203760,3
103,203400,204120,2
103,203760,204480,2
103,204120,204840,2
103,204480,205200,2
103,204840,205560,3
103,205200,205920,3
103,205560,206280,2
103,205920,206640,2
103,206280,207000,2
103,206640,207360,2
103,207000,207720,3
103,207360,208080,3
103,207720,208440,2
103,208080,208800,2
103,208440,209160,2
103,208800,209520,2
103,209160,209880,3
103,209520,210240,3
103,209880,210600,2
103,210240,210960,2
103,210600,211320,2
103,210960,211680,3
103,211320,212040,3
103,211680,212400,2
103,212040,212760,2
103,212400,213120,3
103,212760,213480,3
103,213120,213840,2
103,213480,214200,2
103,213840,214560,2
103,214200,214920,3
103,214560,215280,3
103,214920,215640,2
103,215280,216000,2
103,215640,216360,2
103,216000,216720,3
103,216360,217080,3
103,216720,217440,2
103,217080,217800,2
103,217440,218160,2
103,217800,218520,2
103,218160,218880,3
103,218520,219240,3
103,218880,219600,2
103,219240,219960,2
103,219600,220320,2
103,219960,220680,2
103,220320,221040,3
103,220680,221400,3
103,221040,221760,2
103,221400,222120,2
103,221760,222480,2
103,222120,222840,2
103,222480,223200,3
103,222840,223560,3
103,223200,223920,2
103,223560,224280,2
103,223920,224640,2
103,224280,225000,2
103,224640,225360,3
103,225000,225720,3
103,225360,226080,2
103,225720,226440,2
103,226080,226800,2
103,226440,227160,3
103,226800,227520,3
103,227160,227880,2
103,227520,228240,2
103,227880,228600,2
103,228240,228960,3
103,228600,229320,3
103,228960,229680,2
103,229320,230040,2
103,229680,230400,2
103,230040,230760,2
103,230400,231120,3
103,230760,231480,3
103,231120,231840,2
103,231480,232200,2
103,231840,232560,2
103,232200,232920,3
103,232560,233280,3
103,232920,233640,2
103,233280,234000,2
103,233640,234360,2
103,234000,234720,2
103,234360,235080,2
103,234720,235440,3
103,235080,235800,3
103,235440,236160,2
103,235800,236520,2
103,236160,236880,2
103,236520,237240,2
103,236880,237600,3
103,237240,237960,3
103,237600,238320,2
103,237960,238680,2
103,238320,239040,2
103,238680,239400,2
103,239040,239760,3
103,239400,240120,3
103,239760,240480,2
103,240120,240840,2
103,240480,241200,2
103,240840,241560,2
103,241200,241920,3
103,241560,242280,3
103,241920,242640,2
103,242280,243000,2
103,242640,243360,2
103,243000,243720,2
103,243360,244080,3
103,243720,244440,3
103,244080,244800,2
103,244440,245160,2
103,244800,245520,2
103,245160,245880,2
103,245520,246240,3
103,245880,246600,3
103,246240,246960,2
103,246600,247320,2
103,246960,247680,2
103,247320,248040,3
103,247680,248400,3
103,248040,248760,2
103,248400,249120,2
103,248760,249480,2
103,249120,249840,2
103,249480,250200,2
103,249840,250560,2
103,250200,250920,3
103,250560,251280,3
103,250920,251640,2
103,251280,252000,2
103,251640,252360,2
103,252000,252720,2
103,252360,253080,2
103,252720,253440,3
103,253080,253800,3
103,253440,254160,2
103,253800,254520,2
103,254160,254880,2
103,254520,255240,2
