train_idx,val_idx,test_idx
23204,1792.0,54902.0
23309,44634.0,17466.0
5076,17595.0,24114.0
63891,47432.0,8979.0
10280,35000.0,994.0
22913,23346.0,6456.0
5308,28139.0,69749.0
82303,56649.0,84828.0
81421,29271.0,30662.0
73852,74111.0,54706.0
84688,77538.0,81498.0
33209,61624.0,60239.0
53306,20415.0,54778.0
11331,44080.0,50211.0
85107,50459.0,11099.0
63223,1370.0,2971.0
62792,42758.0,14311.0
68542,73130.0,70638.0
11096,10279.0,73439.0
34752,34300.0,22758.0
23605,18412.0,26884.0
23851,69151.0,74662.0
6758,1388.0,77512.0
75730,38606.0,33925.0
40681,80220.0,77875.0
42432,47044.0,84680.0
17307,67860.0,85299.0
13741,54750.0,10271.0
29649,17605.0,12487.0
4614,37796.0,51202.0
7821,12590.0,19020.0
54300,26993.0,56716.0
39485,43100.0,50048.0
80187,22569.0,73184.0
68963,43933.0,34086.0
77043,561.0,35578.0
81428,26041.0,28763.0
64314,1034.0,45972.0
53513,33097.0,8452.0
14013,37278.0,3036.0
12102,47008.0,39649.0
14869,63786.0,26389.0
53725,31425.0,19212.0
84879,83854.0,77998.0
36086,42860.0,86468.0
75818,46096.0,80154.0
52753,17998.0,72098.0
59576,49419.0,33548.0
2322,17884.0,30790.0
374,86537.0,18525.0
18666,71594.0,69303.0
20484,53599.0,67433.0
73783,11131.0,15878.0
81620,14519.0,12731.0
33903,4599.0,41892.0
15010,39615.0,75149.0
70140,4727.0,22377.0
35803,43429.0,17869.0
48911,34158.0,30390.0
36287,3393.0,72988.0
55992,82382.0,59909.0
70355,48418.0,76960.0
26766,31851.0,54183.0
75721,64720.0,32013.0
78678,62173.0,77420.0
52455,81713.0,64433.0
25315,314.0,13765.0
73069,32277.0,76041.0
34177,6448.0,47318.0
38252,17714.0,82146.0
2450,85135.0,61307.0
33237,12545.0,42026.0
49679,73626.0,55236.0
63860,79629.0,69850.0
32289,38999.0,44946.0
51333,63435.0,9411.0
46530,62140.0,66742.0
26146,6962.0,10212.0
28937,18685.0,52526.0
69762,56279.0,62735.0
62542,61479.0,57908.0
16902,85317.0,54414.0
46087,30223.0,77678.0
38987,75223.0,77991.0
4416,21255.0,66044.0
29957,4279.0,82824.0
11542,52450.0,84271.0
59005,65007.0,44530.0
3713,77140.0,33610.0
49058,76785.0,27784.0
71597,55431.0,12346.0
42792,58332.0,81173.0
43260,65577.0,34.0
54084,54408.0,81530.0
53016,76013.0,49406.0
31714,30812.0,37859.0
65011,69776.0,9484.0
64601,79009.0,40656.0
43904,67418.0,37036.0
8021,64756.0,44144.0
52173,58774.0,70634.0
26967,14329.0,71221.0
82387,52441.0,81039.0
29183,22217.0,46987.0
2737,46713.0,82963.0
33396,18092.0,39624.0
45614,49329.0,13876.0
72744,81362.0,70215.0
7964,59466.0,17278.0
11491,37467.0,15757.0
64423,43537.0,15182.0
60017,56002.0,8844.0
9494,75996.0,28888.0
66685,69485.0,58520.0
35639,56410.0,63500.0
10761,30047.0,37642.0
5946,57461.0,54015.0
72398,63808.0,82496.0
19427,56171.0,43675.0
69032,78906.0,17657.0
67402,13852.0,49321.0
31465,39924.0,71603.0
70335,74956.0,2247.0
44342,64127.0,79179.0
69423,44089.0,7340.0
72925,86200.0,70420.0
30636,48961.0,80394.0
54124,13540.0,31355.0
7905,30265.0,83823.0
45116,33374.0,66423.0
729,83668.0,33636.0
28263,85333.0,9883.0
31079,2753.0,1005.0
59839,21856.0,82854.0
49599,15812.0,84716.0
35184,60617.0,2409.0
62959,59927.0,1253.0
3070,64150.0,85927.0
8641,73917.0,2617.0
69646,20438.0,32960.0
80,22782.0,80945.0
60549,34165.0,41097.0
6519,37689.0,19246.0
84829,60193.0,69170.0
57129,10682.0,25740.0
5987,62138.0,50012.0
79834,50524.0,68299.0
55459,67502.0,29451.0
874,67376.0,73671.0
7106,43633.0,17052.0
64185,72759.0,82450.0
81452,20988.0,62846.0
7915,57191.0,79440.0
15377,83080.0,65319.0
37440,51767.0,73238.0
2218,25341.0,60457.0
30053,67960.0,40881.0
4751,28420.0,23195.0
5225,16686.0,49588.0
17122,38372.0,15576.0
42797,35015.0,86405.0
75586,9105.0,81229.0
51784,14785.0,28218.0
18699,81081.0,2629.0
83907,74385.0,79954.0
58551,43416.0,51617.0
68555,36531.0,30800.0
36045,13976.0,18988.0
6165,18591.0,5106.0
35279,51504.0,1926.0
62017,70546.0,82720.0
77444,69788.0,18374.0
28596,75843.0,24237.0
25424,61306.0,66219.0
5479,15617.0,45351.0
29626,14827.0,84647.0
12067,75512.0,18829.0
69583,77040.0,30724.0
12290,55274.0,4316.0
30606,23435.0,65445.0
2046,72987.0,69790.0
64483,69621.0,23615.0
55478,62697.0,32709.0
84547,26808.0,33048.0
56409,40143.0,28495.0
83305,50401.0,945.0
69488,76284.0,72198.0
64009,5558.0,38601.0
16844,23751.0,69926.0
35437,69594.0,41752.0
64504,46651.0,22492.0
29399,12757.0,68484.0
29915,22531.0,6072.0
32572,57343.0,5808.0
60292,58922.0,24380.0
8411,84205.0,53571.0
32838,13670.0,53130.0
78899,19429.0,82062.0
79503,60048.0,65686.0
43470,74412.0,47942.0
49548,82884.0,84970.0
1513,47748.0,64692.0
55802,60850.0,25331.0
63604,75855.0,63712.0
37683,64050.0,45946.0
33468,63596.0,63618.0
73004,71555.0,26077.0
51941,14777.0,4157.0
41,47618.0,48485.0
27878,41187.0,66495.0
18028,42061.0,84229.0
16904,33024.0,20658.0
20227,65933.0,16783.0
79298,431.0,34466.0
40101,62867.0,81199.0
48644,56844.0,48871.0
14906,5711.0,14613.0
65287,47110.0,5881.0
13379,42698.0,47521.0
24433,82385.0,47822.0
79998,26271.0,53855.0
2517,16323.0,36017.0
53455,15673.0,32633.0
80447,5835.0,46569.0
37156,46704.0,67375.0
49309,71135.0,73558.0
57086,53926.0,13291.0
46328,11428.0,26461.0
71710,36566.0,23322.0
13316,27054.0,76521.0
33558,2331.0,5448.0
72773,49154.0,75955.0
22818,64357.0,20776.0
29693,74697.0,55317.0
61948,15478.0,25126.0
56175,38470.0,31540.0
42455,7989.0,78000.0
33523,49317.0,17501.0
54806,57597.0,56798.0
56702,64498.0,52407.0
77148,2436.0,68892.0
39340,21624.0,15618.0
47590,45790.0,16547.0
5411,12523.0,22392.0
1289,37809.0,25182.0
16649,31587.0,50163.0
75399,13373.0,53674.0
61605,10580.0,21848.0
11072,61484.0,8169.0
10465,37670.0,82061.0
85478,75405.0,16366.0
41665,35835.0,67456.0
828,47197.0,34035.0
84407,49132.0,73692.0
54173,41010.0,33912.0
71105,79991.0,30463.0
60228,52266.0,1880.0
35387,76251.0,730.0
81633,52398.0,54311.0
39545,18329.0,14131.0
46452,27695.0,14680.0
64943,65297.0,69369.0
38701,72454.0,58686.0
21877,33026.0,59240.0
81799,18533.0,70103.0
30822,41523.0,20416.0
20537,6175.0,85313.0
7976,29528.0,64126.0
73421,66038.0,62554.0
57335,20904.0,3482.0
59543,53133.0,5185.0
44750,51018.0,18838.0
83129,62044.0,79969.0
59499,69997.0,61466.0
41414,63289.0,13943.0
39898,40646.0,72676.0
19811,82336.0,36661.0
49226,47015.0,43651.0
27067,16759.0,8617.0
34141,11758.0,60358.0
49173,65324.0,4204.0
77318,9100.0,57497.0
3282,52210.0,2165.0
83661,30684.0,71424.0
14140,55382.0,70948.0
22964,55877.0,25108.0
86132,30228.0,19915.0
33167,76703.0,2960.0
38823,42223.0,10606.0
8231,6888.0,7781.0
47281,76186.0,29050.0
26231,28533.0,64606.0
37720,41827.0,1784.0
79327,82150.0,76005.0
17468,61591.0,8654.0
37445,36600.0,22549.0
66293,7278.0,4399.0
3118,69014.0,76591.0
36696,53499.0,9626.0
10507,55727.0,5053.0
62246,6525.0,18056.0
51748,73018.0,65258.0
26500,36234.0,35926.0
77268,78227.0,70332.0
41809,78261.0,56103.0
15621,78803.0,25255.0
20453,57599.0,15045.0
61712,33850.0,80190.0
65413,61138.0,61738.0
65127,45942.0,39737.0
66306,64897.0,71480.0
32585,34646.0,54072.0
8145,31909.0,37186.0
31784,35683.0,72926.0
79771,74778.0,45164.0
85315,35124.0,47428.0
19759,6966.0,85099.0
55519,3173.0,49361.0
15208,22611.0,53628.0
72675,70225.0,44766.0
28832,42096.0,75298.0
55524,46740.0,64378.0
5320,36664.0,66593.0
76442,20796.0,79439.0
11119,67467.0,46508.0
42072,3565.0,6000.0
75044,22848.0,33021.0
86205,76877.0,3304.0
24748,34367.0,36830.0
30983,39141.0,39671.0
59588,82922.0,6695.0
21144,80987.0,85195.0
44650,59964.0,54859.0
31434,43437.0,11558.0
82818,16540.0,30594.0
53860,33906.0,23213.0
40268,53359.0,6417.0
82360,51557.0,77440.0
23739,34655.0,36682.0
3933,29112.0,42163.0
19753,79494.0,848.0
81526,71807.0,7389.0
12618,64492.0,21439.0
7468,77870.0,62180.0
71566,15262.0,71149.0
2210,50394.0,46100.0
42509,2992.0,62843.0
84747,26040.0,11619.0
8135,74979.0,41079.0
21419,77021.0,5879.0
9488,18146.0,65613.0
26388,33704.0,80689.0
44671,45275.0,57739.0
18519,7319.0,49100.0
80361,56555.0,37022.0
31025,48027.0,36708.0
75811,53773.0,70531.0
36064,1696.0,44743.0
325,64635.0,85377.0
31495,70030.0,6579.0
54243,38373.0,5820.0
26973,22514.0,41436.0
32426,69136.0,8889.0
75856,86476.0,65877.0
33423,17233.0,48463.0
46279,67944.0,49098.0
24434,69387.0,43474.0
68886,64807.0,6561.0
77337,20291.0,6891.0
59552,20970.0,56559.0
76490,45332.0,47549.0
59823,3647.0,906.0
44030,1866.0,77308.0
57121,29718.0,70693.0
17033,10825.0,21023.0
77719,65887.0,73670.0
18048,79937.0,62877.0
66609,82229.0,4894.0
27155,82155.0,25971.0
31043,17635.0,61123.0
26233,70753.0,36545.0
31759,11076.0,14545.0
65176,32134.0,26308.0
43487,57097.0,84671.0
73694,58801.0,60899.0
68588,79175.0,67877.0
44316,1185.0,27819.0
72207,13897.0,49964.0
44991,82648.0,59600.0
76964,61830.0,10025.0
7243,69335.0,53245.0
55740,24929.0,76419.0
57951,20314.0,31557.0
78126,81528.0,79630.0
82988,54259.0,23984.0
70854,68644.0,86546.0
84848,66477.0,82016.0
79859,62609.0,58119.0
82132,59565.0,73217.0
55944,6913.0,34913.0
13047,69226.0,64840.0
35025,22496.0,51469.0
38607,22965.0,41518.0
3251,48417.0,59292.0
68846,21743.0,53671.0
54967,53874.0,64993.0
17353,49931.0,6935.0
47970,45055.0,68269.0
6199,40509.0,25535.0
67698,14340.0,39158.0
44076,80809.0,10654.0
54759,17090.0,10205.0
5770,80736.0,54562.0
42123,78193.0,38007.0
73879,1385.0,50964.0
79182,24252.0,69465.0
14958,29640.0,39431.0
13927,48015.0,11521.0
28813,24304.0,40997.0
75296,35582.0,24212.0
78531,4584.0,70844.0
27974,29614.0,59160.0
12,38864.0,56259.0
43135,27393.0,67607.0
17913,14488.0,63200.0
50749,41865.0,70860.0
82491,45361.0,49743.0
27642,10676.0,21095.0
38282,42366.0,47901.0
84870,13206.0,12610.0
37102,57971.0,16018.0
69501,69375.0,51598.0
73378,19933.0,55263.0
5955,18885.0,19031.0
32533,31201.0,8746.0
83474,70278.0,8277.0
12969,63916.0,7315.0
72235,8547.0,28744.0
27905,37391.0,60787.0
58314,82383.0,61893.0
68534,57111.0,81347.0
70798,83583.0,43219.0
70042,11912.0,37247.0
17070,2476.0,72469.0
34790,10035.0,2540.0
14246,68773.0,4440.0
45050,34590.0,9381.0
38927,69427.0,42218.0
30787,19736.0,26830.0
40231,40959.0,36383.0
64962,66343.0,6848.0
30777,76484.0,46290.0
39703,14170.0,83608.0
72248,8782.0,14657.0
13278,23591.0,17729.0
34919,71865.0,76947.0
80808,13813.0,50655.0
64882,60801.0,499.0
74630,29389.0,46035.0
37029,58484.0,20844.0
42214,1578.0,47875.0
14576,7759.0,67711.0
31717,62772.0,12887.0
34294,31813.0,59340.0
52910,24239.0,82424.0
57259,78566.0,9731.0
74461,83619.0,22833.0
43321,61958.0,28761.0
5367,69318.0,48493.0
60191,62045.0,5001.0
15435,70556.0,13342.0
82434,53108.0,46353.0
9264,54965.0,10512.0
8648,85354.0,74876.0
45962,3982.0,34667.0
78807,46270.0,65032.0
35714,85680.0,48023.0
45319,1087.0,16974.0
47845,71369.0,25612.0
2095,7683.0,3278.0
71851,70701.0,54371.0
5927,64298.0,81659.0
49826,23805.0,31067.0
26526,128.0,66058.0
64547,57411.0,54060.0
18250,17518.0,29188.0
33111,22302.0,71753.0
41635,22577.0,67347.0
20701,24499.0,76694.0
79085,33816.0,45664.0
20276,63587.0,41509.0
6976,65367.0,78145.0
33579,71527.0,59953.0
48121,46338.0,63119.0
71579,75083.0,74547.0
51385,31517.0,77430.0
55545,63111.0,59266.0
6252,74998.0,65137.0
46770,55724.0,3826.0
70932,80088.0,10583.0
49367,30362.0,13250.0
51944,25296.0,13404.0
3431,53457.0,76549.0
8970,41054.0,48955.0
70598,40567.0,41459.0
21811,14044.0,44295.0
57311,86343.0,4139.0
83019,49771.0,54966.0
10469,38949.0,3053.0
28324,27900.0,85490.0
74596,31640.0,6660.0
58668,38157.0,51170.0
34391,49467.0,61425.0
78073,12345.0,32258.0
61872,57493.0,62404.0
46462,23817.0,38962.0
56011,62608.0,36140.0
53052,34331.0,11921.0
38947,60220.0,79050.0
20873,28867.0,42884.0
29800,16125.0,30321.0
1602,50284.0,17128.0
74300,66050.0,38103.0
76241,36739.0,1928.0
47409,35106.0,36275.0
13072,45725.0,28072.0
1020,5216.0,47348.0
29701,75968.0,51749.0
29886,86077.0,5966.0
16009,239.0,75461.0
62884,36452.0,76665.0
57613,81991.0,70325.0
22079,35461.0,9722.0
36149,73533.0,33794.0
34431,40788.0,70882.0
66362,84081.0,79346.0
84817,46367.0,52288.0
36557,12035.0,176.0
39481,53939.0,564.0
71674,14944.0,30710.0
38911,85679.0,18960.0
43210,24876.0,33737.0
68420,75659.0,81151.0
69758,20507.0,69472.0
28023,46808.0,1438.0
23269,68609.0,19209.0
53615,72063.0,48041.0
61277,33889.0,82000.0
31867,52855.0,8240.0
19123,40302.0,20081.0
20479,48079.0,18512.0
84588,73504.0,62039.0
84358,21084.0,35799.0
81297,76770.0,71802.0
41425,27803.0,22269.0
65122,18437.0,5991.0
36732,16821.0,21479.0
16697,50342.0,36573.0
24277,36588.0,71683.0
2729,2996.0,25662.0
22162,66825.0,12681.0
15242,77636.0,26721.0
23072,33936.0,83406.0
74275,17588.0,27582.0
45711,16913.0,898.0
5502,57887.0,67871.0
62307,42159.0,27750.0
27542,33619.0,44878.0
68962,24482.0,2579.0
44491,35197.0,77020.0
71192,57115.0,10840.0
85307,59472.0,72907.0
21978,43164.0,67102.0
2784,79381.0,81932.0
19593,28312.0,46979.0
838,59209.0,42009.0
36707,27104.0,22602.0
75449,58259.0,12807.0
65998,15602.0,821.0
58840,21093.0,17820.0
57490,79485.0,37130.0
82470,58187.0,21362.0
48844,60494.0,8588.0
61981,57151.0,70578.0
62482,85853.0,62057.0
55331,71359.0,2888.0
85452,20395.0,50963.0
16823,46864.0,6541.0
43387,73900.0,8468.0
58317,82865.0,1297.0
59216,70013.0,53141.0
11234,47572.0,68370.0
30476,44982.0,80218.0
47985,34276.0,28417.0
84489,27753.0,22959.0
39896,4664.0,54335.0
41669,70630.0,20198.0
72200,20622.0,11527.0
33498,76807.0,13892.0
28199,65960.0,69907.0
72941,15938.0,40617.0
18716,45732.0,50451.0
72802,75728.0,59147.0
33574,49904.0,39960.0
1556,52244.0,79812.0
43802,76676.0,72276.0
10520,867.0,8485.0
32494,2508.0,51828.0
33860,10897.0,54769.0
77626,34144.0,14435.0
27148,40220.0,66625.0
245,75938.0,25653.0
80253,80707.0,10192.0
40400,83229.0,14169.0
64914,43676.0,28335.0
26063,57809.0,51713.0
13650,42075.0,41386.0
77777,47783.0,643.0
48866,23494.0,995.0
74268,47900.0,40871.0
18138,15885.0,11484.0
58637,15403.0,71783.0
10724,73771.0,39808.0
4553,30598.0,32345.0
77141,38802.0,21368.0
32303,63180.0,36143.0
50007,16681.0,64470.0
24484,45196.0,1361.0
45398,61236.0,10746.0
29883,71952.0,68192.0
64152,2574.0,26864.0
57901,57376.0,40635.0
67046,15803.0,33030.0
54571,24857.0,81765.0
14180,52637.0,15130.0
36802,52787.0,4536.0
55930,41396.0,23503.0
75425,66874.0,75493.0
35283,2550.0,21463.0
36699,33685.0,53686.0
27978,70713.0,48400.0
7422,83514.0,32595.0
65304,73065.0,1675.0
42389,68389.0,65628.0
12594,64833.0,75045.0
63065,35633.0,47392.0
428,46186.0,14087.0
38542,38137.0,83849.0
71867,51573.0,21702.0
38693,72641.0,70921.0
76443,2974.0,27173.0
13506,39195.0,71123.0
15137,68901.0,6253.0
62267,1945.0,47794.0
15342,69680.0,61548.0
83770,27845.0,29128.0
85420,39527.0,22853.0
2664,46020.0,38810.0
14046,60958.0,4645.0
19341,84892.0,58837.0
67608,37945.0,65928.0
76372,18023.0,37717.0
84017,47716.0,52618.0
58950,24521.0,3363.0
79387,38793.0,7036.0
4669,38989.0,63450.0
29380,43101.0,64464.0
72769,39486.0,12986.0
19989,82715.0,76354.0
55817,85151.0,36305.0
39688,26396.0,59986.0
18986,66996.0,9267.0
56710,18331.0,75963.0
3912,25088.0,1671.0
76662,56634.0,68432.0
47512,8428.0,72436.0
78150,18120.0,74511.0
71818,14500.0,42866.0
6950,64266.0,70995.0
56204,79920.0,15572.0
68409,15678.0,84113.0
77788,3896.0,43165.0
59651,79728.0,47486.0
27911,35960.0,9735.0
67039,839.0,37439.0
68756,55190.0,71785.0
23418,76520.0,57007.0
14148,68390.0,66402.0
3829,28553.0,68459.0
30233,83826.0,75258.0
37558,62052.0,58044.0
83996,75716.0,73885.0
41711,50853.0,67385.0
4786,86045.0,12296.0
59883,75214.0,56822.0
31414,22374.0,38347.0
84522,37046.0,21002.0
84060,54926.0,19709.0
72319,3222.0,75510.0
77861,28799.0,24098.0
9861,44604.0,80330.0
80405,34784.0,33817.0
71606,55135.0,78253.0
83623,46559.0,85685.0
60382,66456.0,10720.0
40820,69567.0,25880.0
67195,49655.0,62621.0
28470,78383.0,38553.0
27596,64617.0,44717.0
26906,74667.0,30940.0
19200,55791.0,15207.0
86264,29368.0,59427.0
15911,29141.0,65744.0
25542,54621.0,11265.0
65737,67987.0,41496.0
29334,86438.0,68250.0
45661,7751.0,18110.0
51100,45191.0,76728.0
28486,81017.0,34714.0
39088,76752.0,21579.0
65585,84499.0,57419.0
85455,54997.0,52415.0
76341,84166.0,50183.0
28384,84641.0,196.0
29182,28075.0,35407.0
873,25844.0,22974.0
41186,24456.0,19878.0
85872,4875.0,45415.0
7462,60648.0,73659.0
72181,82271.0,44157.0
76029,26168.0,48687.0
24173,37229.0,11181.0
43312,85626.0,53278.0
85094,45484.0,5787.0
61996,77327.0,53711.0
42410,842.0,70018.0
79948,81829.0,7862.0
32880,63840.0,55901.0
67769,17689.0,4148.0
4981,75712.0,23722.0
24202,62038.0,84186.0
46119,38988.0,69237.0
47039,8783.0,70238.0
40984,59198.0,65152.0
22774,23920.0,69551.0
83364,35982.0,28719.0
70962,15975.0,36977.0
3976,17417.0,55493.0
65114,5841.0,64530.0
3116,40886.0,38340.0
74407,38645.0,74962.0
44251,26602.0,7220.0
75119,2633.0,11359.0
73093,38363.0,36009.0
53656,36261.0,56838.0
24943,84284.0,50507.0
48246,62354.0,14811.0
30113,61013.0,2679.0
76366,5791.0,23590.0
51505,4812.0,4097.0
80850,22082.0,61947.0
41352,68930.0,56357.0
27179,46568.0,72129.0
81615,36677.0,49698.0
4829,21158.0,13818.0
59142,39667.0,5843.0
25812,2522.0,72488.0
15368,23299.0,55399.0
19260,38803.0,64487.0
55969,83526.0,36791.0
76481,27403.0,80657.0
13734,14445.0,47735.0
28422,54525.0,46239.0
59983,3300.0,14513.0
36919,66283.0,73499.0
6497,5395.0,24328.0
22710,85198.0,80241.0
37167,47263.0,24258.0
28819,50318.0,60215.0
46045,22358.0,60540.0
8238,40441.0,60729.0
53610,7459.0,9955.0
48525,55404.0,47105.0
55741,6310.0,76836.0
80471,64007.0,33327.0
53511,50289.0,42466.0
32111,12897.0,71653.0
32216,52296.0,28204.0
73658,8620.0,56010.0
19251,46956.0,52964.0
76803,52419.0,48483.0
52730,66041.0,37786.0
40092,64301.0,35358.0
21040,58993.0,3426.0
86247,31224.0,47386.0
83787,53240.0,53074.0
3091,83670.0,5740.0
21522,76977.0,35574.0
36521,40265.0,29578.0
79145,16929.0,33075.0
43194,30263.0,36377.0
43462,14972.0,85088.0
59982,74811.0,35406.0
55722,42021.0,34009.0
84834,13134.0,67091.0
52581,38412.0,49247.0
20297,31732.0,64871.0
53038,52500.0,45867.0
49617,84759.0,27264.0
26625,31304.0,48269.0
36961,3785.0,53549.0
79620,7737.0,28591.0
69178,22124.0,72663.0
15226,62928.0,23416.0
76085,39625.0,48468.0
55707,59376.0,43989.0
58787,80555.0,21396.0
84420,5020.0,11078.0
71061,63897.0,41073.0
30051,957.0,44719.0
926,20434.0,37593.0
45121,79435.0,80114.0
2641,13150.0,11744.0
43984,76526.0,38422.0
68676,29937.0,80195.0
64903,13099.0,24625.0
80432,84608.0,54805.0
15260,80940.0,73713.0
9582,61380.0,19783.0
7395,1001.0,75947.0
73716,1197.0,13770.0
3473,68683.0,2152.0
63495,15862.0,6894.0
81219,33604.0,50456.0
39247,75687.0,24895.0
11835,71801.0,38739.0
73051,53566.0,51508.0
16320,72338.0,30400.0
47450,72705.0,50759.0
33287,25647.0,57646.0
68924,53479.0,76495.0
50501,30827.0,11327.0
85572,26803.0,81409.0
13723,29929.0,74924.0
44265,4990.0,57123.0
954,60013.0,20668.0
54934,66587.0,25758.0
6919,20346.0,2313.0
17537,11820.0,31542.0
6872,26115.0,42775.0
11165,53503.0,79971.0
85402,66738.0,64607.0
54439,22460.0,58213.0
37923,79830.0,13122.0
16936,15488.0,21100.0
33189,20506.0,31265.0
50086,70446.0,36983.0
69401,74884.0,31807.0
52031,21838.0,32240.0
64663,73178.0,60806.0
60175,40811.0,68693.0
54993,68864.0,56192.0
9819,86160.0,85134.0
25796,53758.0,64853.0
15004,7580.0,16423.0
20777,44313.0,74285.0
6070,84906.0,24670.0
2058,55392.0,12966.0
72135,28284.0,76345.0
76426,11702.0,8478.0
82173,74729.0,75026.0
60132,69498.0,73734.0
41204,37406.0,32465.0
34365,77766.0,3309.0
83150,48055.0,30965.0
41088,32271.0,75531.0
84810,17810.0,67644.0
23835,1013.0,40801.0
12335,55027.0,11272.0
16573,62971.0,15663.0
795,103.0,69685.0
61488,28954.0,68346.0
4327,32773.0,85852.0
39985,71195.0,36755.0
16739,57334.0,1362.0
75249,68508.0,49046.0
10576,24891.0,20510.0
15974,6432.0,12603.0
67614,74565.0,82817.0
22984,22934.0,78779.0
16718,37640.0,10849.0
7390,44744.0,39785.0
25942,62702.0,45796.0
67311,12476.0,62688.0
85068,39946.0,2168.0
55251,63527.0,70169.0
22981,40625.0,53754.0
38324,77605.0,75547.0
18293,40437.0,67512.0
9793,81292.0,15217.0
28396,61237.0,42647.0
43760,60559.0,78151.0
13744,80545.0,51463.0
42994,48727.0,60479.0
9384,7615.0,21138.0
41818,81392.0,46247.0
58121,18620.0,50261.0
10127,25869.0,16133.0
58751,43105.0,46805.0
75590,15315.0,84931.0
6551,37147.0,24528.0
56051,28494.0,42961.0
60387,37571.0,1276.0
84869,5102.0,3629.0
45866,66971.0,13600.0
62747,79207.0,79461.0
67964,75370.0,57164.0
12508,34933.0,25213.0
6056,76824.0,79927.0
20960,40488.0,70106.0
62176,82991.0,59554.0
30205,38586.0,86364.0
16451,73878.0,2626.0
23788,7343.0,44206.0
76629,19792.0,48712.0
20839,57112.0,46199.0
23044,15506.0,58667.0
47623,78180.0,71290.0
40061,34316.0,41308.0
10408,38923.0,29117.0
69229,20181.0,63030.0
35998,63393.0,21957.0
32138,44573.0,85991.0
67290,19440.0,60080.0
50815,17056.0,35251.0
42288,75094.0,21548.0
8243,58155.0,37768.0
4419,70802.0,28689.0
25732,56090.0,28847.0
472,17781.0,39146.0
6182,50628.0,80975.0
62356,33242.0,7437.0
64376,49541.0,8710.0
22083,39046.0,38933.0
50305,54701.0,34394.0
19957,84866.0,24735.0
23679,68160.0,6312.0
34605,49446.0,47300.0
54493,68018.0,81287.0
43229,72673.0,16038.0
63717,85341.0,53578.0
43932,57102.0,48391.0
28211,7132.0,31840.0
41727,73628.0,23293.0
65559,24716.0,23844.0
83067,22221.0,51832.0
84010,32941.0,28939.0
49290,685.0,8287.0
85768,4877.0,77738.0
25641,71408.0,46310.0
39201,76839.0,41851.0
53115,49260.0,17760.0
4780,54574.0,46711.0
79279,85723.0,82521.0
51402,9900.0,33426.0
1410,47262.0,51817.0
10986,81063.0,82652.0
70539,67798.0,17575.0
4187,21920.0,37166.0
63055,40311.0,63781.0
14243,81706.0,48915.0
13873,38033.0,22686.0
44611,77661.0,36758.0
81648,11113.0,41389.0
12262,73817.0,67023.0
7881,76378.0,34194.0
14916,77424.0,22348.0
65759,27090.0,22629.0
68460,17037.0,85833.0
56796,18078.0,33624.0
49292,20158.0,75422.0
40571,60325.0,20000.0
44960,29643.0,52110.0
55045,25690.0,19537.0
24382,66047.0,47704.0
44762,18067.0,86081.0
61130,37094.0,34795.0
25507,35858.0,38613.0
36238,42134.0,5358.0
17188,51506.0,75455.0
4048,26334.0,19064.0
10303,78495.0,52139.0
27527,49073.0,67473.0
45723,28500.0,21870.0
46397,21436.0,19891.0
26058,46038.0,8005.0
3603,66415.0,7323.0
11846,8489.0,9008.0
28362,64507.0,44240.0
34231,28140.0,63986.0
12233,83134.0,84390.0
10573,81119.0,11713.0
8636,31029.0,38657.0
71729,59000.0,46833.0
74999,44661.0,653.0
13605,28127.0,81667.0
54602,74641.0,59120.0
28961,45340.0,28513.0
59380,56745.0,6969.0
68573,61522.0,70742.0
68052,1173.0,35083.0
61139,31580.0,25306.0
53507,23791.0,38027.0
36967,33451.0,57537.0
69135,39690.0,7625.0
17315,38288.0,2563.0
81847,646.0,45699.0
84649,18657.0,37152.0
32890,65109.0,67426.0
46890,70922.0,42015.0
71266,51888.0,23174.0
84183,29648.0,44607.0
33112,38831.0,50030.0
75867,19028.0,3132.0
26179,83334.0,11949.0
47231,33638.0,32644.0
74413,72800.0,2608.0
60836,40415.0,62994.0
59047,52991.0,83271.0
16399,17562.0,77664.0
53757,61283.0,27291.0
46136,82802.0,37737.0
13253,69587.0,4549.0
17478,24200.0,632.0
42153,55736.0,25011.0
50025,78728.0,45862.0
41149,59525.0,51509.0
72510,2229.0,15394.0
65513,14355.0,66056.0
49097,37532.0,30159.0
47288,79684.0,8959.0
86033,70141.0,64632.0
81674,44937.0,8731.0
16499,85316.0,62011.0
80133,12139.0,19090.0
33273,669.0,54601.0
58207,75004.0,31054.0
86263,79126.0,33751.0
75096,76390.0,54657.0
15502,23175.0,48111.0
79444,86360.0,24847.0
72755,55052.0,84744.0
9789,52886.0,68029.0
36278,41897.0,35096.0
68897,65929.0,24537.0
67983,5998.0,573.0
24005,82449.0,48683.0
60068,46736.0,49320.0
50491,53138.0,59437.0
75140,71732.0,69365.0
48606,74699.0,19672.0
22057,40169.0,57710.0
25855,56269.0,79360.0
39383,33250.0,63325.0
12997,61392.0,81924.0
33862,9720.0,66750.0
52612,60357.0,20913.0
2145,69253.0,72244.0
41717,15420.0,53280.0
56728,22663.0,15879.0
54170,64333.0,6367.0
20318,69781.0,75144.0
65247,34900.0,69503.0
73045,51793.0,66303.0
11716,25512.0,1864.0
2914,11832.0,85330.0
20376,81156.0,21820.0
32781,66756.0,49657.0
70520,1647.0,2826.0
2314,72014.0,84764.0
85072,41317.0,24446.0
36597,72973.0,48741.0
44902,35841.0,10560.0
60037,35782.0,9276.0
4168,13151.0,78416.0
31333,4663.0,83421.0
41067,56651.0,65811.0
73013,77827.0,82109.0
9976,18915.0,54111.0
15570,80436.0,19714.0
14164,19306.0,67527.0
2233,32280.0,52544.0
50662,7052.0,11321.0
34038,77520.0,15113.0
34327,14672.0,27534.0
45598,43987.0,14752.0
47525,68970.0,64519.0
45288,69909.0,38654.0
21623,53041.0,66782.0
42119,49924.0,44486.0
40105,17890.0,66767.0
20075,31248.0,36997.0
16166,39370.0,13694.0
44325,64257.0,8548.0
3083,66424.0,4785.0
85140,78930.0,68374.0
67044,67645.0,86579.0
82634,56267.0,74847.0
79276,14297.0,24888.0
55362,26464.0,57100.0
8315,62748.0,59740.0
22396,48744.0,78450.0
80115,36503.0,66588.0
18304,60783.0,2652.0
27411,64239.0,81898.0
63818,86138.0,82888.0
75102,930.0,31916.0
23754,8037.0,81231.0
30781,83189.0,62742.0
44749,4475.0,46421.0
53150,20144.0,53802.0
58393,81207.0,73337.0
14993,74625.0,71293.0
56261,27719.0,18234.0
43063,34273.0,8881.0
47189,69630.0,15806.0
54440,52891.0,12826.0
83578,50039.0,70780.0
31191,45701.0,18393.0
66601,49041.0,29862.0
11235,11582.0,481.0
47247,41320.0,30850.0
80731,68163.0,26891.0
79850,10571.0,55693.0
78560,33809.0,44780.0
78186,78271.0,42662.0
18935,61987.0,63603.0
57058,82444.0,6529.0
36535,2807.0,4685.0
51687,35001.0,21371.0
86510,20440.0,86333.0
76735,58921.0,2284.0
31282,81491.0,14832.0
80446,81784.0,32911.0
18237,32526.0,13977.0
20663,6425.0,40896.0
69956,18597.0,34671.0
23374,52594.0,85819.0
34970,48647.0,74848.0
28739,60423.0,2107.0
1296,35543.0,34137.0
28339,23008.0,66149.0
61167,81997.0,10123.0
71791,6964.0,33730.0
12630,341.0,30520.0
22112,68084.0,57240.0
71608,5104.0,11786.0
20338,19922.0,26985.0
4060,16990.0,12488.0
41356,19959.0,16765.0
14606,77936.0,24590.0
63845,42677.0,53023.0
77599,12961.0,27159.0
57921,69633.0,60988.0
57283,39249.0,48085.0
35899,80250.0,23606.0
4373,16789.0,71162.0
20964,3108.0,18871.0
42910,17203.0,83241.0
27263,18359.0,46254.0
9469,59733.0,40351.0
77081,28272.0,58684.0
58690,28213.0,28636.0
78741,36618.0,83947.0
44288,25621.0,71104.0
13006,63549.0,83530.0
23585,62544.0,49075.0
38207,39393.0,28010.0
78281,48145.0,31111.0
75518,18509.0,25620.0
63156,50616.0,67177.0
71727,66792.0,71624.0
73349,49413.0,72933.0
39836,84357.0,22630.0
56859,43236.0,3725.0
80577,46681.0,83903.0
55788,25396.0,55489.0
23717,42266.0,14139.0
12533,13436.0,57468.0
62725,30357.0,32610.0
37917,44778.0,49682.0
44848,25681.0,30231.0
15794,32829.0,29627.0
62136,62594.0,13399.0
84209,6989.0,34286.0
50335,57817.0,73772.0
48681,86516.0,60145.0
66269,5137.0,9354.0
39180,2868.0,4337.0
63213,23326.0,13946.0
72351,37975.0,7767.0
73865,40208.0,22640.0
32814,24338.0,54982.0
36318,63420.0,6268.0
46782,69246.0,52552.0
85810,38582.0,69400.0
75434,42885.0,45249.0
64370,18465.0,42566.0
22224,79430.0,81524.0
44577,78685.0,61859.0
56619,30305.0,45961.0
18553,6851.0,47762.0
63441,261.0,58722.0
70591,20164.0,46944.0
79804,8971.0,61116.0
56479,3511.0,79123.0
38127,40393.0,57130.0
78762,53898.0,67978.0
77296,46532.0,1710.0
17643,65182.0,6973.0
35884,85782.0,39118.0
47447,20214.0,10566.0
54594,31486.0,19253.0
63178,10848.0,36686.0
77396,20334.0,24873.0
77495,83094.0,28095.0
79646,73624.0,35767.0
51992,11200.0,5365.0
45257,50259.0,59864.0
47546,52556.0,77813.0
83065,73368.0,60771.0
15301,41197.0,23176.0
46758,57638.0,12269.0
20755,77977.0,36986.0
52043,81919.0,16736.0
42177,26020.0,22621.0
49728,3701.0,25661.0
82408,66322.0,67320.0
74486,73442.0,24036.0
56765,22582.0,16443.0
3428,59958.0,66889.0
76060,72378.0,77731.0
16570,8564.0,66393.0
69317,76854.0,23843.0
57370,52998.0,30035.0
30004,74037.0,52259.0
38564,8525.0,5928.0
15741,42463.0,53623.0
55164,86305.0,76184.0
78662,66598.0,63881.0
56991,67781.0,54961.0
80798,15230.0,15949.0
41017,10869.0,1491.0
4977,67886.0,20473.0
69556,8683.0,82852.0
10151,81918.0,219.0
67823,59617.0,73234.0
81937,9194.0,86294.0
31378,27647.0,16231.0
20903,49959.0,15525.0
24631,17190.0,53646.0
67672,47217.0,3378.0
70415,24562.0,55940.0
85097,10949.0,46836.0
83422,77760.0,12179.0
33886,23509.0,19470.0
32767,18218.0,25834.0
51664,60075.0,33628.0
45243,23866.0,65656.0
23037,42513.0,19160.0
43008,41917.0,11919.0
24219,12751.0,32936.0
36930,56666.0,12511.0
81539,10153.0,64870.0
11256,34668.0,54441.0
28863,75360.0,38776.0
32060,53368.0,35838.0
13972,24880.0,52783.0
45126,39286.0,63861.0
73683,13466.0,30527.0
37222,32231.0,86293.0
31219,10784.0,85695.0
2899,73362.0,41602.0
41719,39561.0,8600.0
80518,47532.0,76692.0
5228,59985.0,47885.0
34214,18249.0,70725.0
43955,74989.0,8409.0
34205,53809.0,1241.0
35686,81907.0,70810.0
52617,47534.0,57057.0
59620,27847.0,84746.0
53977,32278.0,56946.0
59549,64661.0,20621.0
60256,68262.0,23370.0
35392,8011.0,50872.0
4371,33219.0,40766.0
61244,74810.0,80581.0
33009,56339.0,67940.0
33011,9203.0,47416.0
26772,20194.0,24038.0
17446,50836.0,39344.0
73404,81702.0,25955.0
72599,71273.0,15005.0
394,1433.0,68448.0
33821,84743.0,5868.0
85461,60420.0,14112.0
81590,60987.0,20226.0
33403,83773.0,27325.0
51923,67240.0,5095.0
59511,57309.0,85532.0
17472,51378.0,72985.0
36353,32409.0,45749.0
47610,28866.0,34236.0
40359,41544.0,39045.0
71965,6079.0,65144.0
16345,7635.0,3150.0
2955,72435.0,24458.0
68709,14225.0,85730.0
62098,4356.0,78451.0
8121,12229.0,19997.0
29609,63359.0,44860.0
25473,5182.0,20231.0
66908,47126.0,23529.0
34564,83200.0,69954.0
62947,59166.0,33297.0
14848,26963.0,52128.0
78149,80320.0,48981.0
39792,43943.0,66556.0
36339,3593.0,40420.0
26910,3237.0,59394.0
79196,17342.0,69891.0
44485,9763.0,25197.0
75234,78568.0,50967.0
7280,35620.0,56847.0
30162,44729.0,58057.0
3614,23262.0,69987.0
38271,19218.0,63424.0
35220,5211.0,33987.0
23521,13671.0,618.0
33940,82812.0,33956.0
49326,15424.0,71210.0
40328,5809.0,63105.0
54767,9462.0,23271.0
75469,8423.0,83915.0
66978,16950.0,58467.0
25685,2582.0,1870.0
66355,46065.0,44320.0
10180,45317.0,78961.0
85002,77253.0,32129.0
72294,49160.0,37033.0
6049,82027.0,68852.0
43838,55749.0,14767.0
24898,20564.0,46834.0
55988,26462.0,31779.0
58200,43409.0,40294.0
64848,75834.0,54671.0
63780,30102.0,22899.0
40907,13619.0,71230.0
1373,40050.0,82889.0
49909,26956.0,57878.0
83115,69383.0,78785.0
85061,67380.0,6341.0
8581,7538.0,82851.0
16814,50523.0,59484.0
31633,54998.0,3859.0
28086,27352.0,72331.0
67893,81478.0,42440.0
8196,74814.0,77118.0
65457,76938.0,16354.0
5297,80996.0,59195.0
9794,82111.0,49637.0
59356,83351.0,51489.0
17532,77347.0,73490.0
59581,69964.0,488.0
13611,64531.0,9755.0
84888,14865.0,68558.0
46747,2040.0,61755.0
25597,84461.0,59911.0
70650,57438.0,38505.0
29053,12082.0,73091.0
268,12396.0,31220.0
9480,25026.0,81843.0
57972,21218.0,36226.0
30876,18949.0,61594.0
53063,47535.0,80369.0
74727,40287.0,76222.0
5194,74686.0,23069.0
21712,44175.0,35876.0
25894,35476.0,30154.0
8668,62895.0,18933.0
4448,51637.0,56941.0
23891,29987.0,40550.0
13013,65103.0,55794.0
5933,708.0,18912.0
12954,12307.0,35700.0
43905,35457.0,79039.0
50610,43405.0,81127.0
42409,26053.0,64621.0
9631,83046.0,78565.0
47294,43542.0,2901.0
67611,3025.0,50792.0
43837,50334.0,34704.0
76640,83751.0,72772.0
42554,67175.0,11650.0
66799,84801.0,35337.0
56260,1311.0,5546.0
64167,48879.0,37178.0
83222,36720.0,69309.0
15699,17758.0,77920.0
59152,54426.0,19837.0
63641,48319.0,29636.0
47626,77549.0,63626.0
39489,36544.0,65529.0
24251,59050.0,82704.0
41774,15906.0,60123.0
68915,16754.0,17345.0
65525,65812.0,29154.0
76695,67193.0,64682.0
33648,9483.0,76983.0
80995,59068.0,28124.0
41212,3142.0,75990.0
34602,5775.0,53991.0
81819,40238.0,64981.0
70127,42361.0,60259.0
20167,67732.0,35300.0
64393,20787.0,66223.0
77685,82431.0,78044.0
22194,61982.0,77609.0
44475,21666.0,35041.0
74380,85898.0,22411.0
45837,25199.0,37949.0
2507,5819.0,50177.0
10568,72816.0,78586.0
47789,57245.0,70927.0
41451,15334.0,17462.0
74880,3200.0,9090.0
24962,50474.0,55028.0
50681,7270.0,25735.0
27311,79496.0,81485.0
36141,30474.0,30536.0
30151,26244.0,78732.0
78330,42953.0,45844.0
19241,48593.0,48772.0
8015,25776.0,28607.0
86311,5836.0,74456.0
78760,33041.0,47906.0
30891,39664.0,12709.0
19487,11550.0,80508.0
38880,9523.0,29880.0
11733,63072.0,56120.0
84033,18555.0,82117.0
83607,38012.0,63896.0
20540,46090.0,73646.0
9957,5739.0,20665.0
43523,41050.0,61223.0
17541,45762.0,83486.0
19966,18647.0,82983.0
52931,12187.0,510.0
78761,28257.0,45770.0
1621,14473.0,12640.0
75508,22647.0,50041.0
25990,50866.0,33029.0
31800,54627.0,32772.0
84720,43567.0,78750.0
65800,29682.0,47439.0
46396,72365.0,2055.0
21391,46551.0,28035.0
16634,27051.0,78255.0
55466,33931.0,79471.0
31009,26586.0,54726.0
65200,32845.0,85930.0
46241,21484.0,73940.0
67458,4463.0,81396.0
1666,67013.0,6927.0
16726,17318.0,55434.0
12529,18139.0,22039.0
17324,49622.0,62849.0
52864,56670.0,4265.0
51131,43717.0,41270.0
57622,49980.0,6289.0
59177,37404.0,80897.0
24056,85694.0,25418.0
41533,54505.0,55977.0
2088,17444.0,27367.0
19614,23611.0,80898.0
616,3716.0,69366.0
58713,55288.0,5012.0
36865,32410.0,6211.0
37617,14364.0,9115.0
65218,84160.0,2338.0
50600,47074.0,79849.0
16666,21025.0,2725.0
78170,21272.0,1910.0
71102,309.0,31424.0
44710,47468.0,74628.0
77461,6435.0,21564.0
50265,601.0,17613.0
67559,48719.0,23058.0
64052,50346.0,7162.0
54893,45948.0,77218.0
74440,4221.0,62467.0
68547,70484.0,4422.0
31384,30817.0,16126.0
63187,62622.0,36172.0
47813,45943.0,56914.0
11572,70847.0,62269.0
67780,43216.0,25965.0
48873,40932.0,83041.0
71613,27028.0,54788.0
15291,2494.0,25141.0
57218,30843.0,11852.0
26713,31789.0,13114.0
76433,65558.0,32729.0
38986,68696.0,37498.0
30673,49139.0,34430.0
30665,33584.0,66365.0
50730,48451.0,71733.0
20090,81913.0,46177.0
54257,34150.0,48310.0
73622,24973.0,51957.0
75081,39018.0,71485.0
41782,9618.0,71582.0
67962,20208.0,60473.0
42664,38330.0,6391.0
6571,22213.0,5329.0
16187,55378.0,48574.0
56692,504.0,78578.0
74853,75136.0,19484.0
45300,39415.0,78208.0
11496,8180.0,6186.0
25029,61677.0,84763.0
72922,11604.0,23616.0
86203,23743.0,75284.0
72131,80462.0,28576.0
71462,80694.0,40011.0
54338,39351.0,26282.0
71917,24699.0,114.0
74782,713.0,67370.0
76103,53878.0,13069.0
12477,17457.0,8332.0
6319,32318.0,83201.0
21879,53369.0,77696.0
5945,44896.0,41656.0
61432,40439.0,9403.0
34305,210.0,78705.0
78313,23981.0,6598.0
11959,49566.0,44257.0
66292,81262.0,67454.0
79097,67540.0,14806.0
13958,70174.0,37016.0
78861,24222.0,36828.0
81323,48305.0,81774.0
13839,71522.0,68245.0
29338,84683.0,78742.0
29914,5372.0,77498.0
12619,53851.0,17708.0
16577,59148.0,12051.0
80304,25833.0,59776.0
71150,26700.0,68618.0
59644,35150.0,69496.0
62312,21022.0,84656.0
65731,64023.0,47927.0
47050,61225.0,8665.0
37244,54121.0,32708.0
36367,63136.0,32422.0
11125,37400.0,18031.0
52619,72963.0,70352.0
7306,82401.0,75192.0
26181,56719.0,35956.0
70252,22802.0,71297.0
60389,32819.0,11374.0
33626,24777.0,17553.0
32949,67553.0,14277.0
34827,51978.0,55002.0
47639,8863.0,24649.0
46872,25228.0,14455.0
1170,33249.0,72845.0
45713,40009.0,24012.0
35805,73634.0,2265.0
81716,76569.0,11464.0
31228,52543.0,72998.0
4044,43635.0,34869.0
36083,51605.0,84468.0
56318,70900.0,25764.0
37863,39822.0,79500.0
18415,69548.0,49263.0
72223,3935.0,45944.0
68782,19444.0,3076.0
55623,57868.0,82251.0
57258,80836.0,17091.0
73086,41151.0,45515.0
69908,34943.0,38163.0
6365,34181.0,51935.0
75468,86533.0,84339.0
58007,22799.0,83097.0
11241,29547.0,36560.0
81770,4081.0,52231.0
83490,60928.0,57552.0
51154,81721.0,72953.0
53636,17552.0,36372.0
42725,58688.0,15152.0
58401,30147.0,49181.0
45989,9158.0,84935.0
42960,39645.0,41737.0
44682,79390.0,49516.0
72403,29612.0,14883.0
36657,84401.0,24745.0
34267,80276.0,39371.0
53304,14604.0,48361.0
23896,85375.0,39936.0
31274,3807.0,42250.0
75322,43480.0,27.0
23307,47389.0,67760.0
20560,35329.0,40155.0
31098,44536.0,3186.0
10837,42522.0,18045.0
52578,34909.0,55232.0
84260,23673.0,33407.0
7355,1452.0,31525.0
55464,49880.0,13676.0
47750,16755.0,15247.0
36987,69115.0,42659.0
9784,41686.0,69337.0
66007,28971.0,80994.0
38058,70716.0,71479.0
8361,72056.0,45080.0
59368,81574.0,9843.0
29025,72343.0,4916.0
56158,29438.0,16055.0
11298,12431.0,14888.0
38391,44818.0,45795.0
48736,39622.0,46765.0
20067,15755.0,10430.0
57697,54425.0,80745.0
84181,10187.0,41939.0
34402,18147.0,37292.0
19120,35778.0,21041.0
53552,22370.0,44580.0
36694,65172.0,84991.0
71296,53653.0,9120.0
33350,78992.0,66181.0
41732,12283.0,54193.0
62988,11335.0,22598.0
81719,34382.0,3080.0
63386,40381.0,79983.0
22122,72522.0,33918.0
63031,53708.0,3559.0
76352,46470.0,16071.0
66980,1295.0,63284.0
22696,73377.0,15277.0
1057,82157.0,70776.0
47932,37341.0,6787.0
59803,66633.0,69890.0
7428,48675.0,5994.0
35471,60374.0,21364.0
4917,16758.0,21211.0
26200,36436.0,55594.0
59862,57994.0,43901.0
44506,63141.0,16986.0
73815,50718.0,31020.0
23837,1938.0,29177.0
19568,13821.0,2060.0
38743,48596.0,81298.0
83169,4998.0,19496.0
9141,80486.0,72905.0
22481,14305.0,82654.0
1498,53919.0,26164.0
71862,4272.0,13309.0
108,14724.0,12252.0
33608,37655.0,79582.0
79936,48883.0,73883.0
57546,34271.0,41781.0
19083,81275.0,24314.0
24293,32950.0,41007.0
40580,52908.0,20308.0
46768,65478.0,44180.0
78315,28458.0,62526.0
30525,56665.0,20409.0
82005,57186.0,19147.0
56079,26683.0,60086.0
36485,76150.0,40534.0
46055,32412.0,6963.0
19383,33681.0,73122.0
25630,72016.0,1256.0
67518,55042.0,54652.0
54042,43248.0,71202.0
55757,29388.0,80383.0
70779,67954.0,7330.0
41351,83592.0,29993.0
80294,70904.0,42672.0
44689,83920.0,73268.0
46294,23355.0,70625.0
22376,79719.0,52081.0
47660,28457.0,21844.0
40044,46024.0,10166.0
34863,13620.0,35570.0
37468,21656.0,51942.0
32622,44204.0,422.0
12311,16050.0,45247.0
74101,67188.0,29776.0
22850,4573.0,60258.0
24374,59583.0,7754.0
80968,34222.0,74340.0
77264,33192.0,53344.0
33214,39638.0,45383.0
64397,73052.0,6762.0
65040,65837.0,72174.0
24223,2193.0,64590.0
61400,71876.0,18518.0
39111,41318.0,53296.0
38879,40258.0,57903.0
30630,80179.0,14966.0
9423,27480.0,83389.0
84270,34993.0,41546.0
76852,58874.0,11668.0
3628,21710.0,12621.0
72264,18600.0,31148.0
38544,955.0,62577.0
29705,18566.0,63494.0
81812,47021.0,85082.0
79330,51594.0,70877.0
49384,37613.0,63653.0
2051,19526.0,74363.0
6117,81479.0,75051.0
36614,42189.0,53275.0
8370,33251.0,27123.0
68317,45696.0,30967.0
29499,56140.0,32681.0
81538,33467.0,38538.0
7456,60837.0,51244.0
48223,2660.0,67872.0
32674,74564.0,59898.0
64164,14014.0,19555.0
76159,52720.0,75448.0
35309,54143.0,4557.0
50434,46477.0,9187.0
68229,12909.0,6627.0
10531,60034.0,10990.0
12004,78810.0,63863.0
27242,17287.0,59718.0
55339,33295.0,62829.0
76863,57565.0,57313.0
77992,21104.0,71539.0
46555,28567.0,12890.0
62413,59933.0,41413.0
58252,57504.0,56579.0
72,14485.0,55763.0
43841,69853.0,76705.0
52590,18485.0,1534.0
26120,56948.0,6656.0
15838,81456.0,37015.0
32647,52869.0,38784.0
68624,53745.0,79931.0
68735,18925.0,32372.0
33830,21822.0,10268.0
15499,47019.0,60856.0
56460,35875.0,54315.0
44201,85598.0,61951.0
52245,11343.0,48578.0
62317,68832.0,40049.0
3467,81027.0,49189.0
43274,66035.0,4026.0
12103,79044.0,33422.0
7412,66170.0,65291.0
44479,31610.0,54397.0
67849,56758.0,54169.0
24497,29958.0,28157.0
16438,33254.0,1155.0
11742,33280.0,68755.0
67597,47047.0,46383.0
42482,70055.0,17147.0
31550,79628.0,72829.0
43430,19034.0,34179.0
78835,40246.0,23160.0
61362,10777.0,38003.0
11454,7332.0,64233.0
77393,2432.0,53400.0
56127,83357.0,58941.0
57648,73171.0,27401.0
57604,26051.0,43528.0
19298,27986.0,76717.0
8662,66045.0,11789.0
20938,81272.0,21260.0
6689,45160.0,50165.0
61203,21495.0,27343.0
59775,52794.0,24210.0
75371,22382.0,61454.0
38200,59307.0,56311.0
55451,60157.0,62839.0
71284,68778.0,50482.0
17437,13415.0,40521.0
58545,70996.0,63174.0
51071,61347.0,35479.0
6926,23144.0,4769.0
24665,71922.0,914.0
54442,51401.0,56265.0
42516,65871.0,38395.0
15280,766.0,78365.0
55297,41227.0,10118.0
50276,26569.0,8952.0
86395,30537.0,26367.0
285,76530.0,84223.0
68424,86147.0,19815.0
35347,24695.0,73393.0
49929,16063.0,19730.0
81383,67295.0,58992.0
33391,79299.0,45922.0
48530,42562.0,8901.0
64113,58422.0,11872.0
64346,7172.0,79004.0
65366,15603.0,74416.0
82072,13674.0,29206.0
35910,1529.0,78719.0
39967,63351.0,42745.0
15962,57405.0,40514.0
22827,41756.0,966.0
22532,46399.0,39198.0
4295,76833.0,36403.0
71936,69017.0,78406.0
29536,66768.0,48274.0
36904,50591.0,83342.0
32139,11468.0,43389.0
77183,42957.0,46377.0
78589,78688.0,9818.0
64258,52816.0,34147.0
41841,63990.0,44170.0
28399,29460.0,3169.0
12144,9389.0,51043.0
23197,82084.0,22296.0
34071,6247.0,26438.0
18388,59170.0,19315.0
71856,32188.0,52220.0
66342,72767.0,21461.0
21,9318.0,23803.0
37927,35019.0,72885.0
37911,53212.0,59464.0
15006,66310.0,3575.0
42601,2999.0,25953.0
78080,23156.0,47506.0
85159,45165.0,48977.0
80251,65803.0,59572.0
687,22208.0,57510.0
61834,1427.0,7873.0
36804,31692.0,27720.0
33177,54217.0,32679.0
51004,41648.0,76532.0
3815,696.0,5353.0
65249,85442.0,63240.0
49257,74872.0,8788.0
34170,64744.0,21911.0
36093,36858.0,52029.0
23773,53763.0,29950.0
1200,8466.0,75760.0
52922,79143.0,11863.0
54003,35510.0,68278.0
20374,63504.0,76364.0
24280,46079.0,35871.0
22051,20295.0,84061.0
47687,40613.0,2362.0
37503,43747.0,10604.0
84007,4301.0,50644.0
78631,68979.0,44646.0
60640,9645.0,18965.0
61751,44357.0,63390.0
29555,3997.0,82107.0
24557,30308.0,14816.0
3499,65292.0,26664.0
37110,34478.0,3136.0
58641,21906.0,12480.0
74766,1072.0,39108.0
44424,22033.0,26323.0
54978,21842.0,75822.0
40621,67529.0,67218.0
25655,25798.0,65278.0
39702,82959.0,53786.0
26663,27463.0,27249.0
6998,49677.0,30658.0
64684,82730.0,17420.0
43840,8150.0,72639.0
67048,55582.0,35348.0
73124,14054.0,67000.0
29585,81894.0,26530.0
70397,6010.0,76001.0
85887,49176.0,7677.0
27112,48013.0,61022.0
60023,77720.0,80961.0
55656,17063.0,25455.0
45872,10592.0,58789.0
41251,43377.0,74467.0
65371,56976.0,77332.0
40319,24429.0,79505.0
14437,72654.0,9273.0
81973,22764.0,419.0
85498,5152.0,4635.0
68217,77377.0,75073.0
82681,48046.0,34013.0
26351,72858.0,26846.0
35332,14154.0,9920.0
25707,72784.0,8615.0
34975,15147.0,60026.0
84845,41244.0,24669.0
31737,30902.0,29453.0
82350,15347.0,45403.0
72853,82348.0,86082.0
16215,44865.0,74289.0
53500,82519.0,20350.0
5299,5467.0,15463.0
6903,45653.0,19561.0
33311,37560.0,72542.0
76168,53265.0,7969.0
42132,36602.0,25624.0
49414,69176.0,30446.0
29569,45705.0,17247.0
79748,55899.0,74841.0
52863,25253.0,37845.0
66196,41643.0,84830.0
665,28252.0,52366.0
60355,35542.0,19223.0
74537,7299.0,81573.0
41742,43680.0,66265.0
57567,19468.0,72774.0
24441,66329.0,75441.0
78796,70903.0,49399.0
20290,81840.0,2276.0
73182,13511.0,58110.0
79432,15851.0,20465.0
34011,76874.0,71052.0
49834,84046.0,46455.0
17941,11386.0,60680.0
38633,17415.0,29875.0
74864,84036.0,18233.0
21175,54.0,49568.0
57356,18215.0,40855.0
32181,48518.0,57553.0
37607,13809.0,78167.0
44532,27300.0,10338.0
60975,56715.0,64651.0
50223,48918.0,76130.0
46860,77564.0,2337.0
22202,52676.0,60106.0
44609,43996.0,2586.0
76438,13884.0,12024.0
46837,58526.0,62750.0
54488,43566.0,74006.0
17904,1522.0,17452.0
56119,65093.0,20237.0
71803,53661.0,1618.0
48161,64142.0,56427.0
49942,28903.0,14224.0
811,65996.0,81583.0
27599,31859.0,58060.0
83095,41296.0,49198.0
4289,86244.0,25546.0
31134,2151.0,8420.0
25819,85274.0,73260.0
83085,29719.0,28674.0
65123,86318.0,51271.0
83462,76076.0,86456.0
41042,9928.0,13327.0
85889,64283.0,29021.0
8285,60424.0,13701.0
52923,79785.0,29229.0
60502,41966.0,34211.0
83975,4449.0,65534.0
25872,61847.0,70833.0
7360,124.0,23715.0
5049,85558.0,15835.0
40417,28641.0,79886.0
9288,48840.0,8688.0
74879,79651.0,69245.0
83575,28311.0,52000.0
42332,48802.0,63794.0
39975,53988.0,35990.0
10396,79903.0,79133.0
2372,32560.0,83914.0
36909,21562.0,22476.0
30363,53525.0,60081.0
19618,51321.0,82041.0
34504,37408.0,68349.0
4091,71063.0,17385.0
34738,19981.0,77690.0
23079,79653.0,66076.0
44545,83521.0,71092.0
56637,74294.0,22649.0
23210,16402.0,72553.0
4243,47587.0,39929.0
68830,79147.0,86449.0
47814,7411.0,15340.0
2156,64858.0,38920.0
42813,11983.0,55906.0
43999,45573.0,29387.0
51177,6039.0,31151.0
67632,61641.0,41267.0
33261,50781.0,61015.0
59652,18790.0,83785.0
21660,27570.0,1422.0
76303,73599.0,49734.0
36015,20475.0,62828.0
34744,49493.0,47978.0
37732,65549.0,78169.0
52386,59691.0,399.0
58315,17612.0,6424.0
23941,62920.0,24653.0
28921,69193.0,62109.0
72551,13992.0,72266.0
76022,73096.0,61672.0
58227,436.0,70839.0
22351,923.0,84078.0
46417,71394.0,21276.0
7002,16592.0,50271.0
28042,71586.0,15276.0
48996,18954.0,23314.0
11177,19161.0,41181.0
56242,12162.0,36246.0
26134,63086.0,31758.0
44314,63720.0,12421.0
73537,85425.0,26355.0
20990,41331.0,543.0
49003,27327.0,54735.0
13124,73467.0,37934.0
32248,85424.0,12298.0
81813,58533.0,27693.0
50036,65230.0,46311.0
11714,47378.0,78995.0
22174,86092.0,20972.0
80815,67751.0,3702.0
55738,60997.0,58587.0
32776,50092.0,10843.0
3731,44568.0,55729.0
83294,83188.0,58229.0
20848,6757.0,42682.0
81618,59710.0,62095.0
20188,26493.0,74436.0
43679,53098.0,12407.0
31945,68507.0,30454.0
42355,56112.0,23017.0
13816,17292.0,27859.0
20332,31306.0,55148.0
5234,27656.0,63391.0
63534,6067.0,41601.0
77037,42618.0,83711.0
24605,2750.0,66242.0
60045,85844.0,70073.0
574,30127.0,26912.0
7542,23628.0,18903.0
67827,12400.0,27724.0
67669,85129.0,72297.0
86473,82607.0,19117.0
22265,66944.0,12181.0
41177,20260.0,48739.0
5552,55183.0,3441.0
77384,50960.0,29506.0
27202,79399.0,3873.0
54623,39256.0,21821.0
12354,76346.0,10474.0
16931,48157.0,60391.0
23110,1463.0,6877.0
61026,46968.0,85125.0
75598,71393.0,32985.0
73798,86143.0,70380.0
9031,4107.0,86242.0
23698,21809.0,32269.0
72528,60297.0,67076.0
68146,32718.0,3394.0
58930,59533.0,70696.0
2174,54906.0,41199.0
1972,41962.0,86105.0
61793,1583.0,21724.0
21648,64696.0,82285.0
31136,24403.0,31462.0
23342,38691.0,56551.0
11186,20834.0,41336.0
50364,83740.0,30095.0
59463,9057.0,9670.0
4903,6666.0,20262.0
3040,58405.0,39706.0
24534,65033.0,30010.0
65051,68042.0,49852.0
15044,71130.0,33621.0
74390,1447.0,13126.0
80960,79887.0,34348.0
59702,77306.0,30557.0
28679,78569.0,28376.0
34095,62474.0,51670.0
5545,61722.0,66005.0
26665,23219.0,68884.0
33134,37188.0,51771.0
3073,40346.0,80127.0
55245,59787.0,27457.0
44918,674.0,55233.0
43940,7786.0,19101.0
34059,40407.0,73872.0
17493,30730.0,48827.0
68601,76035.0,13933.0
61879,2997.0,46807.0
52806,52961.0,49161.0
2341,22309.0,32510.0
58658,77100.0,47086.0
31319,24622.0,39375.0
77419,61482.0,36430.0
44718,41502.0,53841.0
58588,50266.0,17933.0
85334,42630.0,69642.0
34915,47483.0,66666.0
29186,37059.0,36964.0
54291,42023.0,60606.0
7681,31251.0,80999.0
76246,79020.0,65301.0
49652,16885.0,81639.0
55101,49142.0,41465.0
54578,55756.0,35567.0
57695,39026.0,4086.0
34266,16314.0,84000.0
61675,53321.0,35994.0
8919,42795.0,65432.0
77821,51426.0,24390.0
29710,85509.0,51607.0
52899,2225.0,46321.0
74614,6318.0,62641.0
26668,20204.0,42820.0
2028,82243.0,46298.0
69324,11133.0,65964.0
34473,78009.0,40035.0
49288,34265.0,13889.0
53246,63624.0,75538.0
29618,58529.0,74794.0
82100,42378.0,26977.0
74606,11168.0,20648.0
13759,22445.0,33625.0
33695,81305.0,68829.0
59171,42453.0,70078.0
49644,54541.0,16383.0
47522,39152.0,28246.0
43507,12622.0,27537.0
79064,10393.0,56336.0
39926,4253.0,33842.0
67070,28297.0,53123.0
60718,23343.0,26577.0
11486,29143.0,43582.0
31847,9791.0,3354.0
46439,51241.0,32579.0
37733,63632.0,29023.0
47187,21837.0,69966.0
84087,74134.0,49591.0
41263,69466.0,46977.0
80799,69483.0,35350.0
31479,80225.0,52405.0
9473,65724.0,54052.0
57708,58295.0,4380.0
21544,471.0,4940.0
64457,11723.0,58417.0
80602,34791.0,45432.0
68646,38861.0,21382.0
84607,53961.0,25922.0
39919,16774.0,33173.0
77216,65634.0,44939.0
74035,48734.0,67806.0
61473,48705.0,42709.0
10539,74081.0,40810.0
24244,35261.0,42338.0
27831,32133.0,25340.0
32019,64778.0,36518.0
44971,58711.0,10992.0
82806,76299.0,47192.0
33086,3648.0,26845.0
15610,41905.0,15822.0
1351,66157.0,25996.0
32176,3607.0,38209.0
78925,54140.0,44375.0
73498,7884.0,24593.0
61238,14592.0,52369.0
69088,45339.0,85380.0
2360,31329.0,85173.0
40046,81096.0,84360.0
36005,75977.0,61132.0
35672,67024.0,43650.0
62016,50242.0,46112.0
34861,8344.0,64010.0
60409,33877.0,45472.0
5323,75333.0,71362.0
49374,72981.0,27741.0
58163,74284.0,44520.0
68964,5215.0,67041.0
53716,34697.0,30681.0
29406,76169.0,17295.0
18109,50573.0,32276.0
41828,25540.0,85519.0
16672,39074.0,75378.0
49952,44853.0,28286.0
77999,44510.0,675.0
25237,82494.0,85934.0
18762,67896.0,40370.0
13903,25926.0,74787.0
76931,37526.0,25031.0
18550,10590.0,52071.0
57610,38535.0,66521.0
16799,84957.0,74375.0
41517,76622.0,27888.0
64031,51438.0,23011.0
5989,50898.0,36808.0
13051,78174.0,20340.0
50028,19890.0,41349.0
18662,12119.0,48792.0
41974,27795.0,76504.0
41761,20788.0,11839.0
43495,34702.0,67010.0
64096,77885.0,25018.0
74189,52601.0,55733.0
36897,2502.0,64821.0
16024,41726.0,71724.0
43035,51585.0,40085.0
81790,67811.0,6501.0
50283,76236.0,56461.0
45782,78778.0,3821.0
70808,46502.0,85213.0
81673,74048.0,82971.0
70654,28413.0,37325.0
2098,82439.0,73381.0
29971,74518.0,61942.0
82653,43824.0,271.0
11114,61612.0,57375.0
47026,9853.0,83602.0
25627,13948.0,37658.0
78883,78442.0,41956.0
72836,78152.0,45548.0
36697,57456.0,51017.0
67401,67899.0,86383.0
35955,9687.0,7719.0
26767,57310.0,85721.0
73761,32569.0,13075.0
57474,26268.0,51846.0
16541,32904.0,26368.0
4215,539.0,67637.0
49913,21583.0,16460.0
28609,6631.0,86141.0
29909,82121.0,5483.0
36550,75966.0,53791.0
72114,76333.0,34344.0
42302,18151.0,76936.0
32,53528.0,59132.0
11636,37105.0,33867.0
14314,17876.0,34781.0
37779,66774.0,12256.0
4756,68021.0,9924.0
57276,48187.0,10717.0
80003,5488.0,5123.0
13476,63978.0,56007.0
29979,30379.0,23264.0
20222,78393.0,3451.0
49387,54747.0,67464.0
36854,4328.0,10034.0
55876,57871.0,72256.0
77484,46903.0,3495.0
11562,67929.0,27451.0
36032,4287.0,65260.0
14381,7834.0,35104.0
47268,58682.0,46818.0
73724,39202.0,57436.0
77542,63705.0,508.0
14617,23924.0,78710.0
67927,16070.0,14165.0
18427,27481.0,61450.0
63770,57382.0,57140.0
31798,78378.0,47388.0
15883,19447.0,35052.0
16373,23394.0,61448.0
4740,74492.0,333.0
24965,82592.0,56810.0
81662,85569.0,29515.0
71269,44665.0,84275.0
26781,21257.0,62381.0
29933,5783.0,56927.0
37561,69259.0,50820.0
942,64125.0,79914.0
80721,35973.0,42054.0
81215,42699.0,64834.0
12858,30811.0,79100.0
7822,72890.0,53823.0
2306,9178.0,32509.0
35750,79702.0,11914.0
81927,46727.0,29359.0
52845,68989.0,40406.0
78110,45182.0,78697.0
44145,66179.0,50127.0
15714,76635.0,34669.0
58470,35426.0,34145.0
81742,85861.0,9129.0
59645,10742.0,50882.0
224,85719.0,74060.0
67532,76148.0,31880.0
60491,58377.0,31496.0
76156,76625.0,81608.0
33852,73074.0,6804.0
60392,44683.0,41528.0
26882,71426.0,30602.0
59235,68123.0,20671.0
52218,24247.0,66875.0
64847,36048.0,51926.0
85123,58779.0,72428.0
18750,21442.0,22808.0
86179,26969.0,25075.0
58493,63182.0,38063.0
54883,9767.0,7427.0
59137,77638.0,38579.0
78939,19356.0,62183.0
75982,80282.0,58318.0
55774,582.0,50114.0
82775,58673.0,11833.0
43785,35978.0,11995.0
86356,33736.0,78401.0
12878,10593.0,10239.0
29973,16536.0,76882.0
68757,40531.0,47847.0
56186,60476.0,25986.0
5746,45566.0,57825.0
71744,40826.0,61055.0
1222,14636.0,44234.0
24141,47265.0,35295.0
3887,83353.0,10901.0
36528,37937.0,17049.0
40055,50784.0,14496.0
66325,85233.0,41976.0
54963,14523.0,37328.0
3918,17329.0,69222.0
18198,67082.0,73038.0
23881,57162.0,18333.0
78220,57005.0,52223.0
14107,54810.0,71912.0
36237,71110.0,39542.0
10464,61393.0,48891.0
84626,73774.0,82309.0
69568,12486.0,1118.0
66991,65570.0,14522.0
23006,7950.0,38028.0
3002,82377.0,12576.0
51526,80751.0,19151.0
26129,48449.0,13471.0
37453,29174.0,25193.0
34080,32761.0,31197.0
86273,26116.0,83393.0
85251,23234.0,69242.0
33813,70273.0,885.0
30957,43607.0,39359.0
11402,45071.0,19720.0
54092,35452.0,43659.0
21429,62618.0,82501.0
75507,7641.0,32825.0
39521,66023.0,19919.0
49472,57322.0,67157.0
47091,63019.0,36796.0
67694,5300.0,20725.0
76944,5199.0,77409.0
23582,2621.0,62297.0
17319,48064.0,44668.0
41076,83.0,10758.0
28098,30721.0,1888.0
86086,46788.0,71153.0
21404,75699.0,29131.0
34817,7682.0,50821.0
76746,1182.0,45553.0
54683,83128.0,15996.0
1187,65494.0,41948.0
82847,62913.0,33508.0
49900,22520.0,79255.0
13939,62500.0,11404.0
7091,21986.0,47956.0
59140,36933.0,21188.0
7513,61618.0,73154.0
39186,31482.0,37360.0
3265,26695.0,50607.0
30849,22886.0,58357.0
19855,36205.0,16380.0
19482,2556.0,32436.0
41023,54794.0,64197.0
25310,13980.0,26371.0
80753,50962.0,29341.0
73157,70891.0,35246.0
20173,33429.0,57936.0
34021,64040.0,52119.0
63602,24786.0,57641.0
67768,63719.0,87.0
71252,14487.0,31959.0
33497,86060.0,9579.0
12784,76188.0,36960.0
47641,28815.0,31534.0
54064,71767.0,16235.0
70665,52309.0,22056.0
50676,63650.0,58104.0
48045,14634.0,70925.0
64439,30764.0,39572.0
6315,78702.0,32385.0
36673,80992.0,59371.0
48547,27437.0,14121.0
86,65538.0,84035.0
30831,22110.0,12266.0
2206,76885.0,26486.0
84597,49458.0,84648.0
60398,63566.0,35724.0
45675,18858.0,37741.0
32255,11500.0,84296.0
1973,84569.0,75198.0
12009,59879.0,60822.0
40184,15672.0,24526.0
4783,1773.0,762.0
13661,24473.0,23568.0
71930,81714.0,47855.0
32707,83697.0,72616.0
68971,72605.0,37592.0
22573,69063.0,45501.0
82677,63750.0,7362.0
68444,66488.0,68749.0
62174,72672.0,9455.0
81644,31670.0,62177.0
27381,30217.0,4374.0
69858,66562.0,58589.0
63280,79919.0,43378.0
77161,66860.0,69840.0
66871,84491.0,7877.0
45895,58143.0,43761.0
44800,66614.0,9342.0
35538,81289.0,85849.0
37587,36569.0,20949.0
33283,51185.0,78838.0
70261,33255.0,31727.0
22779,13959.0,18086.0
65090,52254.0,38042.0
45977,32110.0,54372.0
4524,36107.0,42212.0
80327,56004.0,53654.0
60908,51203.0,48267.0
37765,47292.0,86521.0
39096,1793.0,45145.0
50561,74665.0,80699.0
41020,35405.0,79351.0
76401,4976.0,71453.0
25195,73231.0,3742.0
68859,17808.0,69943.0
73323,38908.0,17348.0
32507,79906.0,4251.0
79098,67068.0,59214.0
69591,6329.0,33676.0
39317,82216.0,84419.0
85587,76702.0,51916.0
78905,30923.0,35189.0
4212,3310.0,7024.0
79283,47090.0,68135.0
48004,28556.0,21064.0
61441,8093.0,21184.0
22040,44184.0,7328.0
64687,71213.0,53580.0
29551,17068.0,3028.0
51907,47132.0,15275.0
39154,5641.0,75074.0
57336,7743.0,3195.0
79638,83088.0,16607.0
7941,29542.0,60818.0
51380,12136.0,36689.0
6433,1226.0,3928.0
67570,13517.0,18554.0
52379,22452.0,20149.0
78248,19370.0,73619.0
23106,27336.0,65771.0
68973,49124.0,47613.0
30037,8115.0,2125.0
46227,4571.0,53217.0
60092,67399.0,77641.0
43499,30307.0,74063.0
34582,1262.0,48609.0
80613,30094.0,50542.0
83511,50206.0,49675.0
31780,51535.0,29634.0
29449,59061.0,15966.0
41513,61808.0,52363.0
57060,84623.0,84903.0
67928,6658.0,52957.0
80993,54011.0,81385.0
5748,72994.0,21397.0
3184,2061.0,83846.0
81447,10993.0,82793.0
12036,19007.0,49685.0
80947,57909.0,32226.0
35004,75204.0,28221.0
43090,41692.0,18652.0
10500,69078.0,78481.0
57434,64673.0,26413.0
68241,84593.0,50409.0
51068,16117.0,57464.0
6670,72011.0,74378.0
18635,8260.0,42537.0
80353,43970.0,237.0
74079,41471.0,48142.0
11911,27334.0,66886.0
75100,44106.0,34756.0
82881,59323.0,56605.0
82940,1841.0,44075.0
45136,7098.0,6936.0
26632,688.0,63107.0
31703,63913.0,58679.0
37200,38817.0,64129.0
35209,66397.0,63824.0
49519,5601.0,59407.0
22996,65705.0,72353.0
12408,25439.0,35833.0
67030,49587.0,48133.0
54244,18625.0,80712.0
48857,63691.0,416.0
65999,5892.0,37984.0
45067,17542.0,75944.0
67704,65201.0,14391.0
47489,77087.0,75229.0
36012,42286.0,49131.0
17596,37828.0,79548.0
9881,27558.0,64599.0
29450,43658.0,29026.0
25446,12127.0,45512.0
29507,25815.0,25689.0
24407,58931.0,53564.0
19302,50416.0,50842.0
21802,84618.0,24523.0
80511,57699.0,52804.0
71599,65465.0,52382.0
28580,63946.0,79162.0
9696,1810.0,79727.0
54296,59586.0,38914.0
39672,33199.0,10053.0
27037,63871.0,29440.0
50562,28315.0,18269.0
44010,4065.0,12314.0
14290,32710.0,69099.0
25916,3947.0,43460.0
64060,62538.0,175.0
58392,83533.0,57476.0
54793,50774.0,53825.0
60302,31642.0,66527.0
59849,41985.0,67941.0
48411,61447.0,44160.0
8880,24728.0,61057.0
69191,26449.0,38421.0
75429,30634.0,64872.0
78747,21538.0,57049.0
29260,29175.0,10632.0
51835,6270.0,56135.0
49560,67516.0,83465.0
61133,39798.0,49783.0
23579,69214.0,23973.0
2398,27705.0,78983.0
26184,3955.0,55217.0
8726,79611.0,3855.0
54522,42210.0,65009.0
77282,40946.0,83261.0
5253,80648.0,73795.0
51229,13438.0,10026.0
25962,68468.0,771.0
34719,42551.0,21685.0
52401,68064.0,12684.0
20481,82626.0,38679.0
60952,77295.0,77913.0
73758,64815.0,74361.0
18364,62980.0,47971.0
84178,32495.0,22359.0
68944,4072.0,61691.0
65919,36916.0,75668.0
70046,53696.0,81117.0
81638,78159.0,52279.0
53289,85600.0,51839.0
71009,10673.0,2166.0
55950,38434.0,77422.0
2171,47260.0,79640.0
42561,27379.0,2300.0
75256,66964.0,46376.0
67815,57181.0,50894.0
37104,9249.0,35267.0
73778,10074.0,49227.0
63025,6390.0,83815.0
26253,84434.0,63290.0
6687,37882.0,62964.0
58708,19025.0,24221.0
76910,21056.0,76465.0
83176,30621.0,61500.0
52246,42035.0,63617.0
9721,38141.0,3806.0
13318,77840.0,76306.0
53670,43161.0,17299.0
83797,23388.0,49845.0
43424,79907.0,42196.0
26552,40467.0,21789.0
6981,54539.0,75638.0
69476,53524.0,80293.0
9040,37295.0,22000.0
55689,16089.0,44212.0
48828,9099.0,54668.0
37209,24008.0,29172.0
29031,15702.0,79999.0
8950,40976.0,1731.0
43816,75498.0,22035.0
84580,3288.0,21680.0
72810,30407.0,66791.0
34733,40789.0,27292.0
45748,74138.0,80457.0
83801,36998.0,60578.0
55748,10305.0,72318.0
73000,35427.0,20911.0
41460,86050.0,73983.0
53337,2776.0,6423.0
21861,83466.0,20892.0
86570,39143.0,64300.0
46771,56664.0,57361.0
8020,47490.0,20433.0
34046,67211.0,2110.0
54719,3951.0,62123.0
61179,18859.0,44519.0
75089,38295.0,78165.0
57293,36869.0,74073.0
31447,79268.0,44024.0
21704,36456.0,2327.0
63117,61385.0,32670.0
21239,86379.0,64537.0
14264,36876.0,33286.0
63807,10284.0,66073.0
26097,31527.0,61048.0
22145,37409.0,43961.0
83707,59285.0,74649.0
76492,62916.0,12499.0
77388,10630.0,44018.0
1627,37447.0,48589.0
73764,57617.0,40933.0
71521,77076.0,69342.0
34188,4282.0,4469.0
51569,52371.0,77019.0
40608,46951.0,34050.0
63609,65053.0,47363.0
83798,20109.0,76244.0
21046,71892.0,71219.0
29779,3570.0,72450.0
22037,21088.0,38758.0
84398,8257.0,86257.0
37012,73418.0,16033.0
76773,52172.0,38697.0
13010,33995.0,64960.0
26795,85326.0,22809.0
1114,64851.0,12019.0
52918,80403.0,17739.0
25718,11588.0,63873.0
12808,46440.0,42403.0
84304,79746.0,21033.0
34561,35231.0,73754.0
62256,23797.0,38951.0
83951,41693.0,524.0
4905,9025.0,300.0
20393,39446.0,75407.0
79296,19243.0,48808.0
45524,49218.0,75888.0
24813,77640.0,58222.0
4391,48982.0,67374.0
6111,10885.0,51683.0
55320,21669.0,76921.0
64364,79721.0,45141.0
56281,50869.0,7518.0
47298,18252.0,5907.0
14980,18776.0,6496.0
28594,69935.0,70075.0
17510,58698.0,56404.0
50989,5040.0,85625.0
56900,15252.0,17554.0
35123,65856.0,59661.0
71830,3619.0,67866.0
23112,50360.0,1458.0
24851,32432.0,35274.0
20774,41084.0,46150.0
3776,31975.0,42841.0
61703,22845.0,11791.0
52345,17150.0,14167.0
36416,51371.0,80141.0
28817,79271.0,42900.0
82391,43810.0,16053.0
22581,38263.0,47992.0
75907,67077.0,81804.0
32319,43958.0,65810.0
5436,80726.0,74484.0
51974,6437.0,24208.0
1743,17579.0,84410.0
13297,1366.0,75543.0
35273,474.0,64282.0
22199,14813.0,58534.0
73503,84165.0,56537.0
16777,56181.0,4690.0
9739,84924.0,63923.0
17898,17604.0,21513.0
10996,47245.0,72441.0
68377,13519.0,50173.0
21897,77178.0,83568.0
6547,52048.0,9886.0
17362,65104.0,12038.0
56659,64675.0,549.0
12147,19264.0,8893.0
18784,82583.0,8596.0
46615,6792.0,56290.0
79691,57777.0,39200.0
73642,54009.0,24954.0
45027,71248.0,23329.0
10727,10874.0,32652.0
13294,72625.0,55676.0
60780,28079.0,49740.0
43836,88.0,71256.0
59545,38497.0,67778.0
32362,51297.0,62189.0
42555,11077.0,57261.0
11069,61774.0,24500.0
50980,54126.0,4859.0
68233,32927.0,18483.0
10765,70189.0,43756.0
19925,3120.0,66976.0
24326,28909.0,64493.0
4130,23646.0,61376.0
75373,46552.0,58634.0
29791,66868.0,26996.0
11407,16612.0,17012.0
39597,6.0,75950.0
85763,72689.0,85110.0
25145,43510.0,64743.0
30417,83167.0,32564.0
23970,73547.0,51386.0
2805,60242.0,74722.0
52896,65612.0,1931.0
76638,36401.0,50956.0
19081,7208.0,10137.0
36233,3253.0,9598.0
32387,2054.0,26223.0
58489,10419.0,77062.0
17687,8748.0,57281.0
7577,53901.0,38254.0
76187,35591.0,78463.0
81370,69194.0,45665.0
80090,2029.0,29233.0
77323,5248.0,65067.0
27036,33938.0,69036.0
47120,51906.0,14912.0
27638,4129.0,7431.0
46655,59181.0,36553.0
9671,78055.0,10779.0
65806,7947.0,81192.0
33153,64852.0,9059.0
32186,61725.0,42085.0
46140,58120.0,5426.0
74362,29688.0,60619.0
68451,80307.0,69499.0
37017,22924.0,9889.0
14565,75184.0,47275.0
34845,63122.0,51049.0
54832,50698.0,11982.0
50101,15466.0,58199.0
59943,76046.0,72787.0
21476,11040.0,8161.0
4885,5549.0,64869.0
60244,85831.0,52028.0
33943,31307.0,10380.0
10369,5319.0,24979.0
78900,27674.0,31595.0
54616,42540.0,85649.0
15796,34548.0,83852.0
76466,27310.0,8138.0
15391,19836.0,69009.0
43187,11854.0,84204.0
15821,30064.0,2270.0
32147,21282.0,4354.0
55834,24370.0,5227.0
70892,30191.0,5537.0
68530,12503.0,61721.0
22008,37581.0,21254.0
80609,69027.0,83243.0
45611,45490.0,15808.0
20400,53542.0,40756.0
19663,58997.0,16207.0
8886,44319.0,30553.0
30256,7687.0,70172.0
25085,60807.0,76491.0
75763,43380.0,71994.0
35967,12424.0,5633.0
65631,20849.0,66104.0
42400,15520.0,28891.0
13355,13775.0,13267.0
40298,16336.0,42004.0
34053,71796.0,73752.0
29596,67776.0,59027.0
19615,47214.0,77653.0
42488,36470.0,59794.0
83069,20657.0,16342.0
1503,35759.0,60018.0
55271,20772.0,3202.0
12367,72072.0,36034.0
53721,11910.0,30201.0
44195,21133.0,49392.0
28658,66112.0,5172.0
79550,82163.0,75419.0
66883,8458.0,11834.0
26824,19803.0,8159.0
17302,4735.0,52152.0
43662,7096.0,63045.0
31128,47051.0,44886.0
62158,74247.0,49234.0
2777,36266.0,11192.0
54393,76263.0,29819.0
53854,50466.0,46372.0
18002,16776.0,19747.0
16796,32459.0,46487.0
25742,54163.0,2189.0
55417,45293.0,66622.0
64275,50068.0,19808.0
50625,6373.0,56845.0
51223,75941.0,79078.0
68202,28524.0,64369.0
16171,3418.0,16341.0
76467,60014.0,56741.0
76252,65116.0,31466.0
44708,13441.0,63028.0
67833,75836.0,75170.0
27733,10479.0,14797.0
9478,69945.0,64474.0
37058,80771.0,65583.0
30069,47435.0,32755.0
60492,6683.0,54392.0
26697,40554.0,38436.0
64739,46523.0,60495.0
45469,45879.0,35026.0
21490,21741.0,34458.0
75251,11700.0,48678.0
73462,81891.0,74265.0
24069,12357.0,5672.0
47302,31039.0,28703.0
40981,81828.0,53604.0
62341,81782.0,20061.0
52400,2549.0,77700.0
26837,179.0,43006.0
59504,15745.0,5669.0
40872,74309.0,36073.0
80427,34543.0,44468.0
57734,53466.0,17987.0
49064,40388.0,11142.0
33291,14070.0,27317.0
52049,55051.0,3601.0
23085,11967.0,30696.0
75751,62025.0,72234.0
8416,53885.0,48374.0
67898,8305.0,66364.0
51608,34664.0,74196.0
27710,14152.0,53228.0
36785,28640.0,14651.0
18054,59081.0,35168.0
27627,82764.0,51442.0
32283,51144.0,31317.0
26773,6748.0,47619.0
18552,53295.0,85736.0
35768,2481.0,23846.0
33389,41759.0,5554.0
10804,30150.0,43141.0
82726,79347.0,43079.0
4565,84548.0,61801.0
17819,12900.0,54388.0
17334,37865.0,77343.0
57466,78681.0,17777.0
15814,51554.0,29256.0
36749,22506.0,21572.0
39686,35288.0,77782.0
64413,85705.0,48150.0
19321,33538.0,45128.0
30485,62816.0,73823.0
62357,73344.0,5764.0
31392,76291.0,19428.0
61280,61907.0,34601.0
58978,34517.0,39223.0
58461,11035.0,20441.0
43741,8339.0,51533.0
11686,22999.0,3214.0
25461,40465.0,66352.0
84899,30738.0,51909.0
60554,35003.0,77884.0
47089,36290.0,84059.0
83154,68704.0,44664.0
73386,79445.0,8913.0
60613,33364.0,24764.0
5068,62027.0,23278.0
54270,74584.0,28650.0
9481,32607.0,37512.0
44635,2742.0,39762.0
21394,86039.0,78238.0
77429,33449.0,74410.0
25013,38272.0,13451.0
74470,61524.0,79200.0
85793,69441.0,85244.0
34138,14967.0,58665.0
23701,1406.0,57915.0
33091,33047.0,31467.0
74598,78158.0,46604.0
16914,2952.0,1520.0
2758,67565.0,2863.0
61638,5541.0,73223.0
44236,53690.0,46034.0
12429,60003.0,75934.0
73637,43102.0,12514.0
53835,53694.0,72442.0
67528,16165.0,76149.0
20117,28383.0,81771.0
53848,63544.0,8365.0
73465,30554.0,31184.0
81862,38604.0,67974.0
41133,1171.0,58090.0
58131,64420.0,31095.0
68501,64707.0,44734.0
8908,14881.0,70692.0
28061,50153.0,53497.0
46563,53729.0,63259.0
59808,57831.0,42857.0
43053,10092.0,26252.0
8217,35244.0,24344.0
27754,16604.0,62194.0
4766,16526.0,15492.0
4207,82064.0,61910.0
52861,31445.0,3946.0
71902,9272.0,47311.0
31866,63198.0,72212.0
48309,3788.0,68286.0
4911,65015.0,77742.0
48552,56660.0,27396.0
68545,78039.0,50167.0
76756,78095.0,35981.0
83761,8378.0,69125.0
16203,9351.0,35485.0
53607,890.0,57075.0
60497,13023.0,57905.0
8784,74161.0,61890.0
70356,67791.0,76195.0
17237,27556.0,57213.0
32321,17356.0,52276.0
19125,63508.0,16841.0
58909,12942.0,34309.0
36906,79257.0,82896.0
5002,45008.0,47273.0
14689,49532.0,49448.0
1679,66158.0,51881.0
35414,32025.0,82351.0
18737,36915.0,41933.0
2744,12423.0,50285.0
43476,15551.0,69978.0
8870,59086.0,45666.0
56778,84342.0,25967.0
18585,59914.0,66597.0
21372,68799.0,3102.0
27092,5676.0,38376.0
37774,46325.0,84695.0
70544,51483.0,47235.0
7713,17395.0,26565.0
19469,38123.0,28303.0
63039,3787.0,77531.0
77089,19527.0,36332.0
78922,50384.0,5970.0
66713,34357.0,15509.0
51103,45183.0,68982.0
42766,74426.0,12543.0
22719,2102.0,63403.0
7955,38296.0,28928.0
50282,52013.0,10324.0
71137,33524.0,6201.0
15081,34965.0,7133.0
81395,79708.0,9814.0
1061,75442.0,55187.0
85923,42275.0,57562.0
25055,70876.0,40340.0
4775,2891.0,34109.0
14723,66835.0,27592.0
41935,14402.0,83442.0
19770,72417.0,51639.0
42888,30803.0,80287.0
60202,37014.0,15709.0
52823,66582.0,75218.0
11451,61461.0,69332.0
776,36813.0,15726.0
43917,27121.0,28796.0
85785,37414.0,41233.0
78120,8023.0,52387.0
31838,86549.0,22181.0
73306,65042.0,23662.0
61539,70328.0,24095.0
63634,24471.0,77287.0
41957,15267.0,64218.0
47502,11903.0,61288.0
12308,39712.0,69380.0
22767,61519.0,23708.0
70095,28579.0,64567.0
462,9661.0,19994.0
8106,69886.0,28073.0
39848,15978.0,3344.0
65860,58622.0,41963.0
36957,33969.0,32842.0
16909,67979.0,8385.0
24430,79391.0,54564.0
24823,41852.0,27417.0
55017,73198.0,40033.0
19616,80948.0,1846.0
81655,4625.0,22653.0
35218,73409.0,109.0
41364,35827.0,10513.0
37054,20217.0,67289.0
27248,82997.0,31738.0
14084,72655.0,13343.0
53608,26130.0,38900.0
74364,73044.0,57390.0
67236,16233.0,65528.0
44267,24135.0,22977.0
60059,46735.0,56858.0
50992,80573.0,21758.0
19761,72476.0,84145.0
71483,84661.0,4098.0
74657,16249.0,52425.0
61551,13548.0,73252.0
13799,72576.0,4941.0
81711,15990.0,1088.0
56784,54481.0,62449.0
37457,4891.0,8795.0
3360,3050.0,35473.0
76557,60996.0,60777.0
36324,33810.0,9783.0
6241,66878.0,69611.0
69243,72720.0,73036.0
25462,29089.0,14943.0
83223,30826.0,17172.0
43865,75605.0,13141.0
1978,74738.0,2542.0
52570,48986.0,58842.0
9851,16357.0,58485.0
60076,30216.0,78547.0
20040,83561.0,25200.0
28681,31130.0,48492.0
23158,35506.0,2554.0
23650,12496.0,75739.0
31907,35346.0,56159.0
30958,1641.0,45390.0
28161,45545.0,81626.0
78266,39659.0,37037.0
53759,5205.0,15697.0
56730,76805.0,54642.0
52178,30057.0,43632.0
70070,48140.0,22512.0
64272,77883.0,2735.0
86398,13375.0,6811.0
49977,56148.0,85231.0
72832,33358.0,65454.0
81732,77723.0,86503.0
75000,57425.0,42728.0
9558,58278.0,54631.0
60691,884.0,42504.0
61159,45413.0,36399.0
9548,39684.0,31476.0
37374,43540.0,22721.0
76011,6985.0,48885.0
68769,60475.0,15122.0
50747,10054.0,36514.0
42094,80333.0,47600.0
47996,73718.0,62298.0
84818,20824.0,40135.0
39329,59995.0,17411.0
77290,77921.0,28092.0
77683,85968.0,33393.0
46331,49822.0,33015.0
2354,14663.0,38149.0
5592,30258.0,81208.0
24921,26919.0,63702.0
10189,41951.0,42524.0
19835,65130.0,12868.0
8519,78723.0,18739.0
51625,23996.0,79853.0
12542,84453.0,83614.0
80536,5026.0,85658.0
27282,84788.0,34768.0
35429,52679.0,10684.0
43096,34085.0,44359.0
23114,46621.0,18490.0
47860,39472.0,60556.0
72050,60169.0,76200.0
67885,71650.0,55625.0
54789,70845.0,63206.0
2069,81082.0,35403.0
81282,2474.0,37980.0
30045,15940.0,55047.0
62870,79817.0,73083.0
48796,37919.0,45688.0
48627,67511.0,19823.0
64866,13969.0,69060.0
4032,46797.0,62043.0
1876,82397.0,33456.0
36927,67029.0,38287.0
8713,53081.0,13396.0
81909,2086.0,27790.0
39294,55185.0,59532.0
9936,39948.0,25614.0
56707,52010.0,33560.0
11724,32388.0,73179.0
17208,77312.0,63855.0
31344,30970.0,22910.0
15222,24566.0,77157.0
28356,59475.0,31637.0
38971,3112.0,53990.0
61820,68632.0,18346.0
73621,2885.0,64332.0
37114,35045.0,80775.0
75337,42219.0,69251.0
35277,21950.0,274.0
63010,45189.0,54351.0
28583,3367.0,30168.0
22071,2511.0,17293.0
6019,74214.0,27595.0
8140,32109.0,37912.0
23561,47920.0,27815.0
79103,70516.0,41673.0
72017,39503.0,27622.0
78343,28913.0,86072.0
63756,53425.0,80262.0
51361,75957.0,12728.0
1106,9697.0,36431.0
36605,29931.0,35824.0
5874,75667.0,72507.0
23541,58523.0,68130.0
68995,14304.0,28416.0
7829,18348.0,57930.0
26481,4154.0,71948.0
32018,76618.0,29354.0
73317,16245.0,79679.0
63806,25353.0,3735.0
70288,24179.0,32984.0
24457,3153.0,79881.0
23050,39577.0,24542.0
63553,24969.0,75302.0
45634,83350.0,79402.0
53536,70673.0,12457.0
32045,749.0,27800.0
43132,8517.0,70220.0
54625,13551.0,70771.0
29366,50911.0,3609.0
10063,17113.0,5345.0
46341,76542.0,8898.0
44274,32561.0,75470.0
10525,13774.0,3233.0
79707,32777.0,37173.0
24228,70586.0,33441.0
76315,28824.0,81545.0
20489,51215.0,28839.0
6718,36882.0,1116.0
17652,5924.0,14644.0
3154,34317.0,72871.0
54405,43080.0,43902.0
62289,35882.0,17180.0
14491,28116.0,18360.0
85846,6924.0,64103.0
8413,19863.0,11685.0
20419,78104.0,63677.0
20525,3295.0,67586.0
79477,80503.0,45889.0
32468,61172.0,44108.0
68125,578.0,75344.0
54783,9022.0,655.0
45087,44598.0,57478.0
79194,23491.0,34443.0
6038,38874.0,36669.0
33413,66997.0,54900.0
37390,57665.0,55433.0
41344,66257.0,47913.0
28119,38146.0,267.0
30510,30402.0,38473.0
42547,76605.0,70050.0
29077,8246.0,8006.0
79185,82352.0,9002.0
17891,44408.0,13154.0
48793,9937.0,5048.0
28730,64570.0,40649.0
81951,74082.0,78990.0
31690,60151.0,29243.0
49147,45803.0,59176.0
4319,13738.0,55091.0
38320,12358.0,34135.0
59206,58505.0,69796.0
9274,45399.0,73571.0
85735,84088.0,86447.0
69894,12797.0,69357.0
49958,85867.0,22768.0
73412,60538.0,29254.0
70213,85363.0,22509.0
15404,9023.0,12382.0
69129,2616.0,22896.0
8663,75829.0,52572.0
2645,46909.0,62359.0
7963,6821.0,49236.0
73382,55442.0,29560.0
71503,45589.0,52821.0
74271,647.0,38605.0
62417,807.0,43174.0
5201,41959.0,84761.0
16952,64411.0,25713.0
39227,611.0,22484.0
58246,11097.0,16861.0
43977,1389.0,68013.0
29522,44987.0,62490.0
64721,2514.0,47371.0
53086,46068.0,29613.0
75502,59575.0,51198.0
72080,77987.0,17934.0
78611,82314.0,57397.0
15849,13863.0,15891.0
4203,61935.0,56418.0
20550,85566.0,49068.0
68867,30025.0,63889.0
29525,80430.0,83819.0
77103,72203.0,60550.0
67648,73492.0,27070.0
27813,84347.0,53204.0
15333,66428.0,34330.0
9191,76815.0,11396.0
83013,57303.0,73090.0
21028,45544.0,31166.0
66994,36433.0,83532.0
28745,77210.0,19414.0
3670,72620.0,22464.0
60814,27308.0,64662.0
10441,78820.0,76477.0
15988,55241.0,11499.0
45155,68959.0,46485.0
30167,33735.0,4363.0
40228,71030.0,67116.0
85577,76754.0,55447.0
66132,40651.0,48132.0
20685,37541.0,75490.0
63583,896.0,9082.0
72456,47339.0,9128.0
71689,10460.0,24635.0
85273,85813.0,68219.0
28243,60962.0,31464.0
77324,73089.0,5562.0
57850,26551.0,40333.0
58580,61089.0,2104.0
65865,30851.0,24138.0
61270,60019.0,26463.0
37897,35651.0,19559.0
53920,51779.0,33079.0
83908,50856.0,50996.0
82906,9746.0,23726.0
52954,36240.0,85283.0
26514,34099.0,22786.0
30488,29573.0,34545.0
19639,30690.0,73436.0
9961,30381.0,23516.0
28665,43299.0,55319.0
21190,13719.0,33882.0
66380,4077.0,69993.0
72529,75909.0,63035.0
57050,15235.0,38950.0
51777,85570.0,34329.0
81033,18860.0,31328.0
19499,71207.0,20034.0
52912,3489.0,84152.0
11245,35769.0,26294.0
72121,64939.0,48470.0
30828,63930.0,24040.0
8929,21968.0,16889.0
5568,80803.0,57790.0
11649,53677.0,38335.0
70512,64001.0,78241.0
9296,44554.0,14369.0
2101,79901.0,30304.0
73732,53259.0,35439.0
55976,40803.0,50257.0
41676,43415.0,64987.0
86193,84531.0,21737.0
18999,61010.0,54827.0
17432,7932.0,19578.0
47087,86366.0,54852.0
59381,29835.0,57401.0
51051,57422.0,65897.0
46082,64933.0,47998.0
85905,7320.0,28686.0
31590,61740.0,74701.0
61559,81126.0,36616.0
51804,6995.0,58472.0
64835,60453.0,25291.0
13505,24655.0,74937.0
43134,14784.0,33815.0
70239,22198.0,30292.0
37866,81374.0,65146.0
79110,49009.0,78865.0
84582,38030.0,21632.0
70734,66497.0,55543.0
15518,1260.0,49265.0
56623,77644.0,16935.0
40223,27858.0,14005.0
61980,67746.0,84627.0
59594,76293.0,62899.0
45559,51530.0,15625.0
43862,16617.0,2546.0
24349,38482.0,73604.0
56069,40687.0,37373.0
32360,42116.0,13822.0
18307,62743.0,27611.0
60735,21373.0,65949.0
79722,11086.0,1192.0
19273,12472.0,82149.0
59934,69789.0,29997.0
78808,77481.0,9497.0
77899,7908.0,42939.0
4954,80759.0,5497.0
43360,65880.0,42669.0
3861,68680.0,61335.0
62588,81720.0,61988.0
41131,33888.0,33878.0
32578,6526.0,10206.0
9725,49664.0,33151.0
29395,54752.0,82394.0
5265,37611.0,9981.0
65266,78579.0,53234.0
60179,14475.0,38584.0
35544,6779.0,74365.0
29247,10036.0,16624.0
12775,40991.0,13710.0
38406,32131.0,5981.0
39995,58573.0,16252.0
80587,57543.0,74709.0
29474,26109.0,41724.0
73592,15397.0,9632.0
53640,28771.0,42902.0
66903,38825.0,13655.0
50239,53185.0,21466.0
44497,59118.0,60711.0
47357,36936.0,60480.0
4278,1456.0,51279.0
41294,7863.0,69555.0
17698,22475.0,47410.0
49149,59693.0,64078.0
4479,17350.0,54398.0
65001,54746.0,82080.0
53600,44726.0,68551.0
60330,69676.0,23297.0
17962,64737.0,33627.0
2854,35087.0,72974.0
672,73700.0,20920.0
24439,31539.0,33121.0
82147,407.0,4012.0
57650,9709.0,59510.0
1557,16172.0,38352.0
44952,75970.0,30065.0
48488,62686.0,35914.0
33263,11940.0,53927.0
429,71644.0,29727.0
31071,44792.0,9011.0
67120,68611.0,22227.0
6847,57215.0,58298.0
41879,3510.0,4087.0
25056,14218.0,43509.0
6017,35424.0,79483.0
65951,69524.0,16337.0
8500,11504.0,56208.0
16853,23272.0,32673.0
67304,17254.0,20112.0
29751,72492.0,27701.0
42199,12691.0,42304.0
69589,2762.0,37718.0
2761,147.0,33016.0
27035,61809.0,43267.0
25669,76951.0,73950.0
67489,43320.0,57248.0
40242,69862.0,82944.0
34389,85353.0,58109.0
23747,81487.0,31284.0
33954,67846.0,25521.0
60238,86073.0,8454.0
26786,10815.0,20568.0
34899,14069.0,61249.0
43120,53576.0,20228.0
12701,21568.0,35603.0
10521,17695.0,34596.0
644,78526.0,49816.0
33347,79385.0,17277.0
26460,34102.0,3029.0
78425,78251.0,30464.0
16840,79272.0,7266.0
70221,59385.0,18182.0
38995,55049.0,67961.0
51260,49552.0,27225.0
51382,73711.0,16269.0
56533,34049.0,56433.0
80767,21269.0,68294.0
3461,49846.0,67845.0
65915,55573.0,44704.0
55655,10855.0,6692.0
4811,35563.0,77213.0
64405,41580.0,20531.0
27830,4013.0,35922.0
18929,46296.0,20847.0
40141,31350.0,48277.0
58087,4346.0,26106.0
24308,72164.0,28423.0
79945,80735.0,39403.0
46306,25129.0,70315.0
10989,11956.0,71632.0
1913,74801.0,80092.0
38443,23813.0,28100.0
76227,8725.0,41231.0
29538,10912.0,61110.0
64828,10579.0,12339.0
52087,5658.0,5935.0
81697,81461.0,63675.0
15472,13678.0,34914.0
31694,83965.0,50455.0
9452,33196.0,47022.0
10946,40038.0,35238.0
24420,53036.0,46795.0
1068,2707.0,55955.0
10907,65786.0,33711.0
62279,22498.0,74310.0
60468,81158.0,24451.0
35177,48607.0,46107.0
46200,61936.0,1592.0
23520,71372.0,15844.0
19696,5052.0,59335.0
10452,79520.0,64092.0
30195,72688.0,85203.0
8644,20088.0,65284.0
78521,15561.0,86032.0
5513,79452.0,35170.0
2625,70965.0,21969.0
68486,6495.0,33666.0
54394,33778.0,52069.0
85818,11348.0,49224.0
32760,72281.0,64554.0
9902,3594.0,75011.0
33395,35484.0,7756.0
1319,49011.0,40569.0
36676,1975.0,4653.0
845,45374.0,16180.0
17380,39912.0,45857.0
67718,47035.0,32512.0
7473,69645.0,6113.0
32445,42195.0,16349.0
80855,72711.0,59925.0
34717,39544.0,40994.0
41093,75754.0,3757.0
60367,13005.0,4816.0
57643,17326.0,49642.0
60655,37388.0,68503.0
27060,66586.0,20142.0
85272,34918.0,8181.0
62135,40960.0,9556.0
2089,14076.0,54828.0
21238,25946.0,5790.0
7922,51866.0,45916.0
80618,28096.0,38808.0
56756,41655.0,56870.0
6620,41322.0,31698.0
53967,10463.0,36364.0
73992,12575.0,76776.0
11813,85302.0,75899.0
82621,67476.0,63992.0
71365,39428.0,46679.0
64284,72630.0,33607.0
74183,3913.0,30316.0
83968,42528.0,19038.0
37773,42934.0,44477.0
83233,43269.0,79463.0
61706,72563.0,23841.0
8591,41192.0,32491.0
78554,83756.0,57611.0
6778,69522.0,11371.0
67676,20652.0,23517.0
49470,17539.0,6183.0
76469,9826.0,37698.0
61702,3563.0,57793.0
24760,16275.0,7952.0
12695,4124.0,69592.0
84140,59479.0,31083.0
39078,59065.0,53534.0
81549,68305.0,40226.0
82604,86541.0,36743.0
16880,74109.0,7515.0
58374,12364.0,54350.0
14267,56243.0,40936.0
20524,74820.0,53082.0
14759,31546.0,33195.0
17367,77596.0,82809.0
16930,56292.0,23288.0
26667,15351.0,64306.0
27979,82546.0,43829.0
64655,76742.0,25588.0
81579,64549.0,6184.0
58492,1193.0,38476.0
40445,61170.0,11514.0
61498,83475.0,34625.0
34163,58358.0,20933.0
64375,17200.0,5937.0
66401,86235.0,37181.0
40555,6347.0,26538.0
30882,15951.0,5330.0
28249,19124.0,37553.0
45882,10793.0,13842.0
63771,14986.0,35290.0
6761,83897.0,44862.0
62086,23035.0,22200.0
19987,19908.0,77565.0
68701,69155.0,17661.0
64458,31511.0,80259.0
39354,34652.0,65241.0
27214,12163.0,16290.0
13252,39000.0,67498.0
50688,24926.0,65905.0
44754,51523.0,65732.0
53594,70318.0,28925.0
86182,31956.0,21412.0
80644,66783.0,5389.0
31234,63635.0,30334.0
82795,83447.0,63473.0
2503,38204.0,11401.0
49621,36730.0,3732.0
54994,5992.0,22034.0
12933,65479.0,44833.0
34448,25578.0,60586.0
71316,22751.0,74720.0
52072,44123.0,64081.0
76838,64003.0,27604.0
1738,58223.0,43072.0
17281,45871.0,73897.0
32698,78175.0,6481.0
11376,20268.0,43713.0
5394,60333.0,22373.0
68985,82758.0,37143.0
30227,51951.0,64440.0
35100,14499.0,13087.0
42209,25648.0,30969.0
14128,27409.0,28945.0
55941,46965.0,9051.0
68134,30546.0,12633.0
28372,15635.0,50443.0
60534,45739.0,81446.0
24623,14946.0,70208.0
60828,81224.0,65312.0
22906,78386.0,64959.0
19621,82698.0,49498.0
22967,36117.0,55984.0
14196,83964.0,9209.0
61900,52522.0,66222.0
32672,37725.0,81646.0
41672,81469.0,26693.0
27908,43892.0,19280.0
35054,46667.0,47705.0
10394,28617.0,2562.0
53695,85618.0,50777.0
19401,65390.0,36410.0
37716,43697.0,46274.0
79212,52687.0,6728.0
46191,71446.0,75619.0
80636,70513.0,14459.0
20868,58546.0,67219.0
39869,53943.0,11946.0
119,15199.0,80289.0
24461,36210.0,70550.0
10043,55785.0,20718.0
85757,19864.0,33028.0
59260,36871.0,23373.0
6697,62954.0,31841.0
6873,19294.0,54066.0
53190,68585.0,52827.0
16326,66315.0,56618.0
65636,29411.0,16458.0
42815,66453.0,56106.0
32015,53761.0,45345.0
37413,79726.0,55938.0
48149,83374.0,17761.0
23300,46012.0,38994.0
46609,53032.0,7291.0
60448,74211.0,56039.0
18547,45083.0,42183.0
5342,74078.0,39694.0
13491,56299.0,82105.0
13086,20397.0,39416.0
50973,68656.0,46273.0
10984,82175.0,52702.0
32848,2490.0,83386.0
57385,32166.0,17282.0
85163,6739.0,14655.0
71940,33814.0,27660.0
31520,9155.0,40395.0
20751,19767.0,29772.0
47474,23496.0,82954.0
38984,84433.0,41381.0
24094,15460.0,12275.0
31981,71647.0,52577.0
74317,45523.0,65486.0
57712,22729.0,7770.0
9043,61761.0,61378.0
64556,46299.0,9391.0
84981,63415.0,60211.0
49188,74483.0,78233.0
44768,55972.0,61024.0
9613,44571.0,57974.0
12371,57843.0,40057.0
61689,48189.0,59057.0
47426,12925.0,1550.0
40127,4563.0,12078.0
63940,28997.0,66526.0
7550,57919.0,82458.0
48394,28027.0,59809.0
49843,12557.0,35952.0
72261,43589.0,26758.0
12375,40339.0,17728.0
58406,34656.0,35099.0
31215,42955.0,69066.0
27348,27697.0,37299.0
38323,45396.0,3231.0
8522,48852.0,22441.0
4059,57967.0,20934.0
70209,18893.0,70508.0
26415,42233.0,65962.0
72110,21389.0,58947.0
41305,74871.0,70566.0
66284,64090.0,9998.0
23001,51636.0,4039.0
62769,23654.0,74003.0
10018,37234.0,48930.0
31164,78978.0,27218.0
82945,80974.0,78790.0
4673,42650.0,77839.0
62253,20535.0,45418.0
7761,67465.0,10831.0
59988,23907.0,18475.0
60508,37854.0,42063.0
80217,75581.0,56606.0
86432,996.0,31192.0
26980,34916.0,38073.0
86400,12309.0,76269.0
17463,57001.0,9197.0
25751,74121.0,79121.0
10317,34167.0,25643.0
23522,61628.0,71875.0
26596,46574.0,31563.0
50038,52293.0,30181.0
63762,52649.0,4057.0
68180,39526.0,30703.0
73982,18021.0,67451.0
21697,36814.0,49216.0
50436,16112.0,60891.0
73850,45623.0,13330.0
19952,53435.0,86386.0
83190,39623.0,2833.0
8274,44150.0,26122.0
77687,458.0,13814.0
33253,46844.0,64317.0
77352,51699.0,53827.0
59509,23551.0,35520.0
28158,60851.0,16229.0
24628,33981.0,44644.0
66172,6225.0,80005.0
11934,7705.0,6537.0
1554,31399.0,70907.0
25813,29282.0,69536.0
81877,76832.0,34709.0
15564,80209.0,46928.0
15731,64517.0,85553.0
6850,20901.0,48529.0
6943,6095.0,74789.0
17648,65728.0,10926.0
28148,28121.0,53396.0
2898,61077.0,3284.0
29805,44476.0,16851.0
38972,25086.0,44521.0
56001,18106.0,68570.0
79000,4615.0,11378.0
76091,8309.0,81319.0
77938,75599.0,8426.0
45549,66212.0,12435.0
71441,38857.0,20576.0
32565,22935.0,84313.0
68384,53064.0,22493.0
18720,9544.0,33080.0
85749,73641.0,36137.0
7495,71006.0,6597.0
70462,8386.0,79961.0
75566,56495.0,22215.0
25731,24730.0,13136.0
50977,53750.0,82476.0
34287,13249.0,8639.0
30073,39627.0,5847.0
31735,20812.0,45480.0
44229,55074.0,33950.0
68215,63993.0,62069.0
80570,78960.0,79258.0
35039,651.0,67562.0
17817,38228.0,84736.0
73054,61427.0,78726.0
58892,4285.0,26446.0
18442,18513.0,55009.0
33999,84030.0,30277.0
10010,74139.0,31788.0
77153,26405.0,43031.0
35717,20174.0,41802.0
83031,39755.0,51882.0
18173,61355.0,8049.0
2073,21665.0,50505.0
32128,82086.0,55383.0
75205,18041.0,38847.0
56453,65132.0,40337.0
80670,75321.0,50095.0
52017,84361.0,23436.0
4256,32092.0,16022.0
54940,9378.0,18504.0
58780,45143.0,33478.0
57044,41332.0,34950.0
7164,26005.0,80754.0
44997,115.0,48636.0
8873,76914.0,44210.0
82202,53681.0,70447.0
50198,19308.0,52007.0
17995,34264.0,43296.0
61647,50120.0,49048.0
15135,64681.0,84414.0
61736,40303.0,64633.0
39668,22472.0,63269.0
283,41314.0,75237.0
45209,41793.0,61688.0
66929,31681.0,6048.0
47896,26890.0,54102.0
47787,28125.0,15215.0
46685,423.0,72186.0
53116,9118.0,1326.0
75506,25495.0,42386.0
48921,13038.0,17002.0
1715,84916.0,22565.0
78057,25170.0,54835.0
22067,35793.0,59605.0
2907,79308.0,74860.0
34437,84737.0,74129.0
10253,33929.0,72257.0
57826,45146.0,31998.0
83704,34285.0,41009.0
62058,83139.0,52553.0
38781,32310.0,44663.0
1220,27465.0,10757.0
33245,52358.0,4519.0
41619,50631.0,54743.0
39568,25116.0,11199.0
15474,38091.0,4280.0
70457,66337.0,3548.0
33392,41540.0,22731.0
75917,15184.0,54570.0
20985,39930.0,37605.0
51301,77382.0,59619.0
32106,26540.0,920.0
73126,83909.0,53562.0
36011,51280.0,75090.0
52014,69743.0,18301.0
25747,37001.0,37495.0
50735,73522.0,31183.0
74627,3161.0,8044.0
26495,34451.0,49518.0
66719,65645.0,56885.0
62834,85102.0,39745.0
19844,56711.0,35092.0
80111,68239.0,23680.0
30097,30419.0,62487.0
71681,37376.0,46810.0
52895,16596.0,3259.0
85741,58025.0,72911.0
29007,50605.0,5396.0
32011,63287.0,8089.0
56219,16873.0,59033.0
45792,69829.0,34427.0
83248,21769.0,56370.0
1661,34659.0,57798.0
43583,80936.0,36138.0
34429,62432.0,47666.0
23257,82298.0,75584.0
40666,34164.0,24341.0
29841,69333.0,60761.0
69699,59677.0,58437.0
85247,41490.0,16537.0
57512,47001.0,79260.0
23787,83212.0,33612.0
48117,78771.0,64196.0
47533,16698.0,57873.0
73215,37915.0,75648.0
86133,25405.0,21082.0
38014,46494.0,5564.0
70994,1413.0,27084.0
36504,612.0,24215.0
37893,34509.0,68275.0
28630,31792.0,26452.0
71003,25243.0,65110.0
47620,42806.0,34613.0
29848,57067.0,67047.0
58635,41820.0,1948.0
67757,65654.0,56034.0
64891,64502.0,47889.0
2463,71201.0,33915.0
72578,72314.0,79729.0
54138,47240.0,79217.0
9601,68281.0,1856.0
10495,28275.0,64574.0
41981,49712.0,58556.0
22876,19263.0,83476.0
15429,33908.0,54903.0
71145,76322.0,34252.0
50816,51156.0,52141.0
60575,67400.0,55345.0
853,36803.0,49935.0
29938,60585.0,25867.0
53568,36239.0,68260.0
72556,6264.0,75949.0
84426,12658.0,75625.0
15827,36542.0,53037.0
25311,39012.0,17764.0
58457,9602.0,73175.0
72493,16437.0,17967.0
57451,36407.0,82953.0
76540,14696.0,84851.0
29762,19331.0,71106.0
10294,16808.0,57302.0
75946,48952.0,34406.0
16096,84587.0,40360.0
11712,65903.0,32686.0
31056,30098.0,50184.0
20485,52027.0,79546.0
16098,29490.0,46671.0
29270,54123.0,60671.0
19686,52655.0,54727.0
24778,84164.0,74730.0
37169,84005.0,43926.0
48129,74320.0,35496.0
77172,82415.0,2034.0
25284,14637.0,23469.0
40296,50453.0,76409.0
86424,42131.0,62833.0
50224,40988.0,60053.0
69605,26893.0,47319.0
35112,81886.0,70756.0
19472,14310.0,77036.0
84894,44773.0,20667.0
52898,31318.0,84375.0
62397,38956.0,3224.0
29442,83193.0,71482.0
58727,50246.0,78879.0
31042,50441.0,25434.0
18576,7110.0,8414.0
5572,24540.0,4989.0
84032,44444.0,69450.0
23415,58159.0,80390.0
81005,50097.0,78232.0
5777,74772.0,14146.0
37314,52644.0,7678.0
9279,4442.0,61992.0
69988,23090.0,28526.0
20413,82958.0,66894.0
52477,36783.0,62650.0
44979,79442.0,9772.0
20274,39753.0,30088.0
22154,62700.0,18400.0
60090,16424.0,27019.0
75593,24724.0,70940.0
74098,49947.0,34834.0
21171,71620.0,1470.0
921,23433.0,56489.0
70145,62352.0,54456.0
38643,75350.0,9214.0
15496,68606.0,8158.0
83949,79286.0,17435.0
23009,62837.0,65717.0
81211,35419.0,44949.0
46883,65387.0,25810.0
46700,61252.0,83572.0
27194,19980.0,57374.0
5229,8999.0,64658.0
20898,63812.0,81418.0
65251,60173.0,14711.0
3229,53753.0,46317.0
4631,21926.0,13625.0
49848,15750.0,6915.0
6802,71234.0,32645.0
71288,38430.0,45824.0
39834,28473.0,54690.0
84822,55758.0,64685.0
42226,57048.0,84653.0
22572,37035.0,34737.0
40191,19557.0,1768.0
9301,31231.0,38198.0
30179,42670.0,73008.0
43692,80958.0,17688.0
32584,24065.0,24580.0
3723,46560.0,50550.0
43735,27261.0,65399.0
57244,14889.0,3270.0
14183,19364.0,14790.0
738,36177.0,48369.0
66036,77480.0,15039.0
7917,10963.0,32373.0
60120,42037.0,32537.0
6235,2712.0,81687.0
36298,14010.0,42181.0
13697,18417.0,32665.0
71176,1901.0,49183.0
46395,35718.0,66979.0
4874,52212.0,37237.0
55649,51895.0,40616.0
44290,51140.0,45188.0
84451,31006.0,40892.0
79525,79243.0,78508.0
46237,62159.0,58454.0
75537,52155.0,74831.0
50322,20865.0,27344.0
37446,61582.0,33603.0
8395,44877.0,25487.0
59788,19821.0,34461.0
65703,15442.0,61741.0
56642,42869.0,51262.0
83870,3137.0,60670.0
4890,21069.0,40119.0
73114,1402.0,82412.0
68003,69721.0,22536.0
34065,57035.0,52575.0
47297,77880.0,6838.0
5621,74642.0,9206.0
74568,46541.0,989.0
65981,14829.0,77101.0
1855,50159.0,31868.0
4408,34190.0,6545.0
65808,15976.0,58748.0
67056,82620.0,71941.0
82506,8781.0,14910.0
77810,72839.0,39997.0
77969,84689.0,21489.0
8523,9891.0,9685.0
77574,55111.0,42041.0
86191,11515.0,1457.0
659,27049.0,4879.0
53572,44606.0,36604.0
73729,30986.0,72822.0
27992,78292.0,7331.0
9165,46620.0,6009.0
76899,21872.0,9069.0
17213,2271.0,28608.0
38496,54373.0,7679.0
71407,20124.0,64463.0
62127,58230.0,85454.0
61025,31021.0,16280.0
78076,60288.0,2644.0
4651,84086.0,85214.0
44915,30122.0,35140.0
19962,74120.0,6065.0
75801,43238.0,45094.0
64573,326.0,14740.0
79428,72583.0,63716.0
65406,48880.0,86591.0
43801,67283.0,6554.0
84614,8230.0,65576.0
80292,23800.0,53184.0
4390,51208.0,82908.0
26161,70805.0,61705.0
23963,65734.0,26847.0
78954,55462.0,66530.0
64216,67601.0,74957.0
41248,20423.0,69674.0
21286,73296.0,84318.0
79665,54067.0,50817.0
74726,27852.0,59309.0
28113,74153.0,18974.0
30418,33466.0,7478.0
59187,25694.0,66089.0
74406,41255.0,19570.0
48800,54611.0,7520.0
18310,81083.0,51558.0
28165,65491.0,54207.0
16530,78869.0,34156.0
2217,39196.0,80931.0
81276,67222.0,6793.0
55675,63882.0,3789.0
84482,70156.0,226.0
81675,48205.0,25797.0
24960,1174.0,46141.0
11988,81604.0,68417.0
33354,49378.0,18797.0
11933,21591.0,45554.0
54579,56621.0,71292.0
81931,85399.0,18463.0
65902,84948.0,11145.0
69396,58614.0,21728.0
29771,30336.0,79066.0
51092,61723.0,66162.0
34339,69872.0,41501.0
44340,69564.0,33271.0
14424,78654.0,29322.0
85182,38531.0,83850.0
78753,74834.0,14458.0
61780,66840.0,65605.0
34976,58963.0,63820.0
42931,85024.0,69952.0
78817,74155.0,36910.0
40380,42847.0,79416.0
38740,33970.0,27894.0
65665,13498.0,41640.0
39722,32866.0,65511.0
74909,51679.0,29344.0
48724,35905.0,70232.0
7779,66724.0,54650.0
12732,24033.0,31446.0
37660,8437.0,36272.0
41238,83535.0,66813.0
57234,79152.0,63439.0
52392,38939.0,20569.0
12592,17780.0,16434.0
60015,51495.0,62073.0
53193,86421.0,56114.0
63957,77956.0,63256.0
54082,5303.0,7379.0
26021,5688.0,27783.0
45718,76913.0,75158.0
76061,61802.0,27923.0
39717,40978.0,69257.0
35320,75837.0,34767.0
75650,21204.0,19921.0
31121,59224.0,37334.0
7417,51122.0,40039.0
79128,47048.0,36406.0
52740,29331.0,83164.0
10476,45881.0,70873.0
78880,79592.0,50798.0
25260,1443.0,11061.0
38730,63629.0,70395.0
61364,72126.0,22550.0
45119,59521.0,53264.0
17932,74918.0,20082.0
44551,11633.0,10877.0
85588,80649.0,37475.0
82965,49791.0,33684.0
33641,52811.0,47144.0
14032,33863.0,26911.0
28740,72209.0,37838.0
49994,20013.0,59186.0
28059,71079.0,29091.0
21998,69415.0,39192.0
25767,61464.0,36789.0
71741,64867.0,4197.0
44166,49894.0,64071.0
62431,625.0,45341.0
79923,64445.0,85777.0
28542,72758.0,14161.0
45656,71046.0,81376.0
38332,60507.0,67303.0
80021,34004.0,80887.0
21502,52945.0,10457.0
35089,5256.0,5872.0
2823,46135.0,65315.0
58721,8590.0,43858.0
59641,42194.0,54483.0
53728,71332.0,6439.0
55035,12702.0,10955.0
52830,12401.0,38366.0
34400,7095.0,54180.0
17534,36293.0,24465.0
17570,31503.0,43776.0
14300,14090.0,76470.0
56717,64247.0,36893.0
38922,17683.0,82974.0
1721,61719.0,69215.0
34471,70540.0,61905.0
35007,15998.0,22952.0
11529,74491.0,25802.0
71181,10099.0,63125.0
53732,452.0,52258.0
64989,50848.0,20238.0
63606,46942.0,62365.0
78909,77833.0,17832.0
59597,8490.0,67947.0
64184,83008.0,77966.0
40530,85642.0,35888.0
53315,4431.0,26491.0
38224,68495.0,51879.0
39537,76531.0,51549.0
30076,65816.0,82378.0
43581,78022.0,41449.0
39562,49656.0,45745.0
80107,42962.0,42418.0
27038,57486.0,40384.0
35698,18633.0,73262.0
73876,28163.0,1227.0
61151,64012.0,36250.0
32002,66995.0,8081.0
31223,67976.0,4623.0
8178,80527.0,13712.0
71662,43139.0,1811.0
29944,32418.0,31920.0
12912,23315.0,84564.0
13964,78357.0,17606.0
55054,38594.0,14778.0
58355,75396.0,39271.0
4183,51666.0,67386.0
41051,3437.0,10399.0
21895,65764.0,80599.0
19630,28664.0,24906.0
16097,251.0,27495.0
66619,71758.0,72924.0
63868,42254.0,38305.0
38845,40515.0,47803.0
49463,81095.0,59477.0
10853,15399.0,11779.0
13737,72801.0,50425.0
46063,65354.0,57189.0
43759,4587.0,55995.0
69391,42454.0,84820.0
68528,24066.0,24912.0
15172,26434.0,6622.0
54275,81944.0,76052.0
59931,53194.0,31221.0
65306,68190.0,64667.0
53956,72653.0,47122.0
56296,73739.0,43709.0
36319,65659.0,40237.0
38524,52936.0,18494.0
80157,7475.0,30713.0
2163,8939.0,19325.0
72623,54678.0,17594.0
56285,63049.0,75714.0
36666,52602.0,10585.0
19135,82246.0,58156.0
2348,38039.0,79357.0
40293,13043.0,77895.0
83284,400.0,24986.0
52308,44323.0,50055.0
33100,58114.0,78917.0
23240,72582.0,52390.0
15969,9261.0,56510.0
63210,47012.0,36223.0
61998,38442.0,12547.0
37129,62757.0,65356.0
269,37267.0,60755.0
32534,45492.0,39429.0
28685,38631.0,45150.0
9809,53180.0,56026.0
53807,24785.0,70787.0
57668,11856.0,37969.0
42859,65893.0,82807.0
17115,61945.0,44797.0
80416,61580.0,71173.0
70004,3220.0,19911.0
55613,46744.0,49707.0
65983,25369.0,98.0
15595,52059.0,55191.0
63434,7112.0,58444.0
17530,46656.0,74600.0
72910,54996.0,77426.0
52281,13400.0,8035.0
11042,5047.0,41801.0
15129,54490.0,11285.0
26931,64702.0,39126.0
31427,9298.0,65222.0
58562,11089.0,8278.0
40019,971.0,62727.0
38206,39665.0,80499.0
28051,9918.0,80703.0
25769,25468.0,50380.0
86330,74753.0,35834.0
39471,48937.0,27613.0
81236,81453.0,74901.0
80019,54280.0,86499.0
39155,38576.0,16635.0
60286,79858.0,41324.0
58416,7995.0,11047.0
63489,40457.0,8107.0
44352,27925.0,34917.0
16594,39604.0,68387.0
27514,81759.0,9647.0
9259,70304.0,82651.0
14446,68022.0,40862.0
59916,20209.0,30577.0
6784,10788.0,10445.0
7260,47607.0,25399.0
16013,15871.0,66828.0
12037,41213.0,51770.0
67154,40084.0,63061.0
46378,34718.0,66082.0
11947,86391.0,3445.0
38454,86155.0,33372.0
76444,10132.0,5975.0
20216,13474.0,63684.0
4771,4881.0,66108.0
27914,63522.0,31502.0
17849,59277.0,14050.0
41188,79899.0,38050.0
21170,69182.0,55424.0
82445,20020.0,32320.0
56301,86322.0,11092.0
24261,35849.0,86345.0
45982,59863.0,33531.0
65906,70503.0,83141.0
12428,22660.0,57068.0
2772,17209.0,51139.0
65963,52939.0,7541.0
4105,39917.0,74287.0
71761,2824.0,73857.0
12830,30717.0,20279.0
36780,69516.0,25385.0
19110,4665.0,29110.0
36323,39475.0,40195.0
56923,75002.0,56182.0
68179,47099.0,10098.0
36883,65992.0,8821.0
77311,44338.0,39581.0
71956,43864.0,59508.0
78951,59738.0,69493.0
71915,14188.0,33714.0
44048,61633.0,35199.0
21207,53004.0,10504.0
12956,46544.0,59084.0
31504,78901.0,60804.0
80633,55717.0,42560.0
65973,24178.0,68329.0
24352,29414.0,15083.0
58464,57601.0,25703.0
70344,34358.0,84203.0
402,82245.0,53584.0
67740,12544.0,50685.0
56401,85030.0,47760.0
68759,13320.0,11750.0
3156,27047.0,21363.0
2687,4639.0,31125.0
77573,36781.0,8964.0
11711,43814.0,49727.0
46019,24477.0,48165.0
46877,42570.0,41661.0
46166,50884.0,68348.0
24203,85536.0,42887.0
25794,51797.0,17263.0
33589,9199.0,20696.0
22986,52074.0,29465.0
31451,25717.0,29664.0
60444,8535.0,36579.0
24693,3254.0,73219.0
69440,50602.0,76843.0
62377,78031.0,8808.0
9175,48000.0,47385.0
35904,17284.0,12330.0
27438,59816.0,59476.0
67569,27329.0,78842.0
53221,39275.0,41872.0
42475,32339.0,47261.0
58136,73312.0,63482.0
69657,19974.0,70449.0
39463,47102.0,70961.0
72632,5501.0,70136.0
12216,74634.0,7356.0
48729,83446.0,83484.0
71098,74515.0,65868.0
15296,72337.0,58718.0
65469,25501.0,33315.0
51577,73099.0,41973.0
71212,51013.0,24447.0
42297,36621.0,17746.0
42093,47768.0,79619.0
75253,36500.0,70905.0
12998,8587.0,13804.0
62162,39326.0,16305.0
7809,70117.0,5779.0
79711,24130.0,3555.0
25442,85850.0,69188.0
71119,42914.0,34786.0
9538,33990.0,75.0
81809,50779.0,35668.0
76617,22515.0,43912.0
64290,82459.0,84609.0
5893,47205.0,56331.0
84250,689.0,75233.0
53788,82256.0,20304.0
86078,68031.0,6536.0
30184,55586.0,11429.0
14942,44807.0,79759.0
5438,74008.0,51277.0
16074,62452.0,29889.0
3432,12687.0,76564.0
44419,22545.0,81945.0
16251,35317.0,41114.0
81021,51292.0,12689.0
3375,73420.0,66847.0
74559,12593.0,64899.0
42508,18107.0,49912.0
69703,42574.0,20915.0
64497,5069.0,55589.0
56029,75777.0,55970.0
55990,29119.0,50913.0
31463,32929.0,48395.0
83045,69433.0,5762.0
37182,40405.0,84667.0
30440,82808.0,66165.0
15067,4517.0,11525.0
8304,59205.0,24864.0
10199,45988.0,65745.0
17626,20068.0,7290.0
1788,29462.0,36625.0
6930,47412.0,4016.0
83540,58740.0,85713.0
68917,71780.0,50431.0
19486,8874.0,69746.0
83017,46593.0,18005.0
55851,82179.0,47554.0
82671,54653.0,26587.0
79940,29102.0,30918.0
83716,52154.0,27395.0
13263,12439.0,19211.0
68505,24436.0,33616.0
32017,17298.0,20610.0
63329,6483.0,78402.0
25173,71193.0,17513.0
49053,10774.0,21428.0
72482,61175.0,22508.0
15832,32073.0,46838.0
57715,2691.0,27828.0
70001,2181.0,29038.0
26757,13109.0,30019.0
10918,29478.0,58189.0
29874,16407.0,50175.0
45086,31810.0,29724.0
43985,14872.0,19488.0
59843,78708.0,5894.0
83574,79967.0,86216.0
48184,10618.0,3644.0
44393,12532.0,72283.0
16284,21338.0,52106.0
58788,49576.0,42047.0
82283,56515.0,19102.0
32394,11719.0,79214.0
20133,51471.0,35676.0
41376,60065.0,51648.0
51933,21537.0,27673.0
72820,59662.0,40827.0
25413,67247.0,61686.0
81243,81836.0,56725.0
40117,83177.0,7592.0
33032,19838.0,15186.0
54297,65762.0,23310.0
9162,34468.0,1853.0
58297,78430.0,78505.0
75793,28988.0,68144.0
35715,69146.0,1994.0
19824,47707.0,75665.0
9526,22591.0,18692.0
25466,47271.0,62281.0
19598,42260.0,61197.0
19238,342.0,12825.0
86057,4779.0,33600.0
60185,15292.0,11673.0
49902,35064.0,39733.0
67144,77757.0,71972.0
24052,27416.0,65050.0
57460,84338.0,36084.0
37527,17249.0,41208.0
7511,78512.0,41268.0
58875,81584.0,2513.0
4588,36001.0,78660.0
70491,66511.0,35984.0
8358,44474.0,11052.0
6020,41699.0,84562.0
36429,21981.0,77496.0
14521,28487.0,51099.0
50077,16812.0,17502.0
7439,41885.0,62394.0
80967,5252.0,7175.0
34425,73593.0,59598.0
26554,9706.0,70039.0
51447,50776.0,9922.0
49567,12373.0,80475.0
32885,11754.0,52501.0
67816,59028.0,82478.0
52582,6366.0,32411.0
29879,37349.0,49146.0
56130,76988.0,29826.0
24481,3496.0,48898.0
15710,21147.0,79210.0
15157,67079.0,54976.0
42170,35731.0,78914.0
68686,8051.0,31934.0
8643,81801.0,73540.0
73810,50148.0,76827.0
64637,52705.0,59541.0
51054,26320.0,37192.0
84201,32993.0,36480.0
71498,65299.0,46297.0
435,41374.0,67316.0
36450,8994.0,6106.0
31187,50286.0,59520.0
25870,84776.0,74357.0
18511,38312.0,85901.0
64008,62944.0,42253.0
28349,73136.0,80733.0
14599,491.0,20768.0
81047,22583.0,58158.0
15382,5612.0,74895.0
62164,71771.0,23912.0
1822,13022.0,3777.0
14347,41698.0,25528.0
6071,47551.0,49899.0
6467,46056.0,34532.0
49244,11459.0,65086.0
11806,49797.0,21860.0
81755,35363.0,19545.0
12967,41587.0,79717.0
29624,22881.0,63877.0
28191,65861.0,7142.0
15241,54080.0,20322.0
20589,33229.0,16803.0
60915,38337.0,78367.0
519,33476.0,21289.0
9536,83666.0,42027.0
51904,67508.0,5862.0
23721,82545.0,70257.0
25248,7329.0,66409.0
41365,6931.0,6370.0
8737,75718.0,45677.0
10753,70736.0,76305.0
17521,65274.0,30483.0
80800,39036.0,40444.0
28332,47061.0,12490.0
43057,13132.0,56589.0
70699,71283.0,70160.0
79077,33544.0,63257.0
20220,55575.0,16898.0
18827,12347.0,42081.0
63249,28366.0,30409.0
52367,44880.0,38124.0
36552,82552.0,50860.0
69875,67741.0,50076.0
21618,55292.0,47286.0
49466,72558.0,45576.0
42175,14074.0,27271.0
23852,72191.0,86164.0
58709,39957.0,75987.0
40485,27227.0,45235.0
76867,61795.0,17402.0
37217,43804.0,79206.0
61368,32300.0,11280.0
58096,85164.0,67813.0
14363,64518.0,73241.0
64489,20101.0,50386.0
29920,24062.0,30701.0
82975,23839.0,41629.0
79140,77892.0,85181.0
59837,75300.0,23400.0
8480,37205.0,11248.0
69034,11778.0,44457.0
68967,52560.0,77893.0
25806,39193.0,48878.0
56860,68856.0,50695.0
58732,69574.0,33417.0
53963,46277.0,79742.0
30074,63032.0,42804.0
55764,74607.0,12761.0
2324,70849.0,40454.0
3035,36650.0,8128.0
5148,31353.0,14278.0
74459,64144.0,49423.0
66678,56211.0,36832.0
48376,5073.0,37728.0
32865,55470.0,5369.0
447,75389.0,8501.0
44986,74333.0,44517.0
19228,81935.0,28811.0
62062,83921.0,84021.0
41272,24827.0,26658.0
14394,83611.0,43300.0
18729,79551.0,62082.0
8251,7640.0,19236.0
48248,75727.0,75980.0
18926,61319.0,55465.0
29029,8832.0,15354.0
10608,6298.0,77557.0
12934,27126.0,60182.0
82669,74269.0,5038.0
50059,25513.0,40627.0
13001,64705.0,75497.0
60893,75174.0,30017.0
24620,80551.0,30616.0
2636,44988.0,2683.0
31808,45887.0,35203.0
1346,16848.0,27212.0
2979,50824.0,21006.0
19516,33432.0,44539.0
27234,6956.0,34060.0
19889,40842.0,2558.0
24522,82590.0,15824.0
78340,29195.0,9760.0
58607,43428.0,85929.0
4882,14085.0,26915.0
39657,41980.0,64806.0
73785,27717.0,59062.0
53274,8092.0,79908.0
83722,8191.0,12140.0
11247,10574.0,11890.0
19084,8610.0,7709.0
77983,78510.0,8405.0
8322,80908.0,20713.0
38472,43172.0,63429.0
11003,18448.0,25349.0
24738,18342.0,58483.0
28663,63458.0,52497.0
73941,30062.0,19138.0
60944,41307.0,73846.0
40876,45729.0,61136.0
65409,79799.0,15541.0
7326,85657.0,71546.0
3104,6399.0,46373.0
58886,37730.0,81904.0
21714,34983.0,12617.0
86055,6392.0,85416.0
23737,34882.0,17641.0
1167,630.0,35227.0
34721,25160.0,58843.0
57835,51781.0,31165.0
30998,29293.0,51876.0
15680,3377.0,79669.0
71794,25079.0,10021.0
23682,522.0,32366.0
85895,34220.0,71638.0
85506,4348.0,65853.0
75790,10365.0,18176.0
36812,24661.0,80086.0
10499,20355.0,33163.0
26529,84413.0,80290.0
54037,7979.0,2743.0
68845,13228.0,85276.0
37687,32292.0,64918.0
82178,48396.0,26443.0
8286,30877.0,66822.0
69231,12154.0,16871.0
30644,27997.0,69239.0
62734,76775.0,16271.0
77464,53083.0,2378.0
81507,66146.0,63531.0
17609,31396.0,55055.0
31161,55510.0,81803.0
43440,67844.0,75778.0
37942,84234.0,23334.0
28984,26800.0,1317.0
18129,35173.0,57144.0
64957,14315.0,71251.0
78843,7588.0,63520.0
44964,85297.0,21900.0
48559,14168.0,84586.0
27709,28978.0,28323.0
68177,8355.0,47795.0
57598,84890.0,31296.0
3263,3292.0,7339.0
70085,67673.0,62358.0
84824,55662.0,29939.0
83765,52314.0,50471.0
3929,6138.0,27842.0
13664,84157.0,82182.0
20329,26949.0,55299.0
25124,36800.0,3342.0
21234,70796.0,81155.0
79484,41375.0,69148.0
10597,42643.0,55336.0
61093,51722.0,42395.0
64206,82867.0,47150.0
15724,31299.0,47667.0
40805,10374.0,256.0
6502,85066.0,74009.0
84620,8676.0,72486.0
27805,5995.0,66274.0
2796,27547.0,1348.0
85911,66717.0,80575.0
21075,6272.0,75759.0
31266,37789.0,22668.0
16330,52978.0,59665.0
9421,14430.0,54286.0
71085,80328.0,82949.0
27069,16528.0,7984.0
24782,60667.0,38139.0
9038,35786.0,20078.0
2480,18686.0,66542.0
43767,40683.0,18112.0
74025,67292.0,28431.0
46752,37073.0,72182.0
77260,7801.0,73456.0
56774,49660.0,32613.0
19814,3506.0,37262.0
60765,484.0,75043.0
35640,86504.0,20315.0
48696,32105.0,62729.0
66854,36466.0,18905.0
27454,2730.0,85228.0
57517,42826.0,41570.0
36221,9242.0,62326.0
19393,35855.0,76945.0
56033,72753.0,73419.0
23493,40283.0,79718.0
60435,69538.0,49550.0
4446,32384.0,83168.0
3613,71904.0,45993.0
22087,22749.0,73871.0
28150,25640.0,16910.0
56785,40772.0,70747.0
72236,7167.0,51791.0
1282,4347.0,78041.0
21790,46613.0,70575.0
70428,72913.0,15062.0
41118,55576.0,72967.0
82512,26381.0,84863.0
16618,27295.0,37139.0
64945,67852.0,41101.0
6207,59639.0,54495.0
65117,35492.0,42490.0
71299,25098.0,51700.0
35082,27590.0,74351.0
35869,19619.0,9492.0
71532,38602.0,36626.0
58510,41762.0,58593.0
1419,36643.0,18938.0
61176,81514.0,47444.0
32738,25033.0,46677.0
68762,65487.0,8836.0
85520,29412.0,25770.0
47425,52738.0,71893.0
12894,79292.0,40787.0
84537,36556.0,34176.0
50544,76473.0,80178.0
31278,25403.0,56394.0
5590,26689.0,489.0
46276,77734.0,34375.0
25477,28309.0,78100.0
36952,55360.0,71611.0
30071,68562.0,41288.0
74206,63937.0,14268.0
2949,75489.0,85365.0
62640,23706.0,37250.0
56028,49820.0,79596.0
67006,78932.0,33003.0
70186,11011.0,16028.0
22811,73635.0,63524.0
26335,27614.0,65543.0
83226,76749.0,37259.0
63569,41680.0,70421.0
5772,63911.0,16955.0
56346,4593.0,66382.0
47752,62210.0,74563.0
55460,13370.0,71709.0
15914,75989.0,24629.0
48524,13076.0,61790.0
60347,66463.0,21970.0
50132,66589.0,11129.0
82060,28227.0,83617.0
32153,13702.0,61590.0
81234,69382.0,27860.0
22275,66486.0,63961.0
55024,47434.0,38667.0
63842,7777.0,19289.0
35370,85192.0,34399.0
18188,68254.0,73450.0
81227,34492.0,22402.0
18373,75269.0,40362.0
6133,54106.0,18024.0
9205,9639.0,43588.0
47081,86334.0,40961.0
43592,2732.0,12733.0
35581,74445.0,75653.0
61874,58094.0,23864.0
52708,22138.0,35425.0
20335,26072.0,28342.0
40918,52286.0,78215.0
18450,335.0,47321.0
47170,77623.0,800.0
72141,31893.0,44307.0
39578,45716.0,27110.0
55301,38786.0,52764.0
84469,62454.0,40752.0
59357,66683.0,31882.0
37366,59457.0,70561.0
75279,41690.0,84742.0
18035,40847.0,37119.0
66539,44443.0,65706.0
55376,10997.0,1603.0
46054,50800.0,27958.0
65815,66341.0,6100.0
59842,3618.0,76563.0
72418,20552.0,84492.0
41062,20267.0,54038.0
53361,42755.0,84415.0
81169,29760.0,24775.0
76004,37878.0,34554.0
47635,44224.0,25469.0
23789,43598.0,53093.0
46085,67132.0,25743.0
726,86530.0,43407.0
85185,74130.0,19903.0
75116,40229.0,68914.0
26698,2259.0,22705.0
5003,77981.0,64905.0
3727,37839.0,26135.0
42483,55857.0,1639.0
65547,40628.0,74394.0
56122,29017.0,44003.0
83536,19489.0,83775.0
28009,61115.0,22367.0
35822,28120.0,58101.0
56791,32047.0,29726.0
38969,46896.0,47723.0
55671,12936.0,77864.0
53340,57700.0,73451.0
14339,29167.0,79262.0
18842,60511.0,75815.0
13387,70942.0,75349.0
21508,22270.0,53899.0
33115,73768.0,47250.0
59745,80889.0,28005.0
60954,77835.0,73930.0
65112,36344.0,9590.0
76182,27901.0,23339.0
24958,64404.0,76522.0
24452,71636.0,14886.0
85112,68000.0,48198.0
80760,29660.0,45502.0
27538,75193.0,32386.0
75261,76297.0,40737.0
25558,74863.0,72494.0
40190,32847.0,71607.0
7741,57898.0,79819.0
21087,31239.0,56737.0
66895,10600.0,57749.0
12641,14009.0,41816.0
66877,6151.0,20784.0
59602,67475.0,27031.0
63577,84898.0,54673.0
2570,12524.0,5376.0
67627,71377.0,57774.0
81578,65216.0,11372.0
24444,55889.0,44011.0
23699,64915.0,42300.0
40538,62441.0,52303.0
80624,21004.0,27389.0
11364,5780.0,53531.0
72311,20035.0,81162.0
67812,72459.0,59415.0
27017,15753.0,18548.0
15288,51725.0,19501.0
24412,36095.0,86268.0
47157,31398.0,80851.0
46631,39675.0,7572.0
47169,64262.0,51136.0
31978,14762.0,79227.0
45848,46127.0,81787.0
47868,28791.0,39908.0
75171,38006.0,73024.0
44453,26879.0,67372.0
79429,61397.0,15533.0
1692,70241.0,16662.0
15341,82259.0,77457.0
36337,11384.0,26593.0
15443,80275.0,44403.0
62808,14882.0,186.0
12739,84417.0,81101.0
55861,83501.0,7966.0
51491,61757.0,4846.0
55036,23.0,51780.0
44215,84878.0,9518.0
55849,73665.0,48177.0
74762,36685.0,73911.0
46726,66217.0,43434.0
86083,26829.0,2065.0
76679,62163.0,77120.0
18034,70044.0,460.0
69111,74186.0,29463.0
1640,62333.0,16331.0
83889,628.0,6342.0
12646,12007.0,11287.0
35604,73220.0,42854.0
56291,30092.0,57859.0
69934,61291.0,60207.0
13389,83384.0,38132.0
29365,25676.0,5089.0
55153,47585.0,34780.0
4464,54628.0,64991.0
56545,9258.0,19540.0
45059,32858.0,19066.0
48123,35856.0,77550.0
25140,66378.0,14405.0
11228,33671.0,38483.0
38465,6059.0,22223.0
55079,59874.0,38386.0
85796,45184.0,19765.0
73726,22004.0,82877.0
22238,34746.0,15598.0
69833,55461.0,75511.0
588,19085.0,65065.0
45029,17097.0,58854.0
58821,28358.0,54094.0
12627,72965.0,31762.0
37095,8930.0,36028.0
9086,5125.0,33568.0
80790,41236.0,40929.0
63314,78896.0,3967.0
40152,16136.0,58419.0
40026,71955.0,25754.0
69838,2223.0,18502.0
9468,15776.0,73638.0
20363,3948.0,81375.0
56840,84520.0,44394.0
5071,27761.0,64598.0
56934,4095.0,77447.0
77390,68911.0,74448.0
85200,14195.0,37568.0
5878,64893.0,10829.0
19519,36736.0,61259.0
11665,68500.0,38455.0
64097,43551.0,64267.0
31529,67617.0,69144.0
12322,15880.0,24369.0
24515,67966.0,24753.0
49778,54264.0,12562.0
66119,5954.0,16299.0
11782,11141.0,43402.0
84502,9338.0,71429.0
9620,49982.0,12440.0
49795,48587.0,16769.0
14753,2267.0,47747.0
80789,70671.0,13588.0
1714,82374.0,63718.0
8156,33309.0,61614.0
59667,45372.0,58331.0
15886,5645.0,40552.0
30299,49114.0,55143.0
50116,23962.0,9463.0
40299,24013.0,56438.0
85953,50635.0,16716.0
80796,19805.0,21527.0
36835,9232.0,63801.0
82585,26860.0,45430.0
14796,86195.0,59296.0
57603,47568.0,68300.0
47848,1430.0,40018.0
26541,37300.0,29010.0
59892,71507.0,15244.0
82009,48976.0,36156.0
70607,62101.0,35240.0
81179,17041.0,83898.0
50564,74324.0,55772.0
54925,75001.0,63973.0
47336,30948.0,63463.0
26339,62089.0,64799.0
44934,18271.0,62541.0
38144,39411.0,5815.0
10981,65323.0,23192.0
44418,70643.0,49925.0
77570,86486.0,21738.0
46603,38796.0,8956.0
1343,43028.0,13411.0
7567,83989.0,74721.0
73185,72168.0,59924.0
39053,66710.0,47194.0
935,27267.0,4382.0
77551,48261.0,66145.0
79829,49193.0,66906.0
53199,56647.0,53777.0
47256,31597.0,62850.0
37382,65635.0,59814.0
67073,9712.0,72664.0
77399,53113.0,26060.0
3847,67794.0,27012.0
736,779.0,22503.0
62998,61036.0,60668.0
59215,8189.0,32435.0
19735,84333.0,80422.0
30218,20380.0,65980.0
19451,19604.0,43828.0
130,72147.0,80305.0
84258,43295.0,56368.0
2428,30883.0,82253.0
8218,39609.0,27187.0
2047,69882.0,58337.0
35164,33930.0,41071.0
43830,21222.0,33996.0
29245,70277.0,65389.0
11487,43986.0,59971.0
40063,75825.0,55985.0
28515,38878.0,40606.0
11449,60799.0,18520.0
52215,25007.0,46614.0
15153,72087.0,1633.0
64793,38801.0,19354.0
8993,60939.0,15869.0
61298,52877.0,22561.0
17720,30324.0,67094.0
34368,19214.0,70383.0
82643,26746.0,47246.0
61233,63395.0,52466.0
34007,31964.0,16131.0
58327,60736.0,53418.0
35766,5343.0,60212.0
1442,16946.0,52176.0
39065,45998.0,81279.0
56681,7666.0,17485.0
24205,10639.0,78027.0
39999,76939.0,39546.0
592,38540.0,34893.0
29452,58349.0,73457.0
25438,71848.0,51891.0
60888,34259.0,67040.0
32169,52564.0,27233.0
59406,67726.0,57685.0
65062,11124.0,79375.0
36941,47253.0,35113.0
27662,20368.0,69720.0
8589,40047.0,1298.0
80542,23139.0,60950.0
42839,14701.0,86461.0
38307,74576.0,85706.0
47328,85677.0,16629.0
71314,80186.0,38248.0
85671,21499.0,16420.0
33450,9314.0,51166.0
81482,11753.0,50104.0
66564,34614.0,71699.0
66032,62221.0,43515.0
84055,38982.0,11608.0
71342,68695.0,59217.0
63407,70502.0,75676.0
83070,71715.0,67517.0
86463,29514.0,76485.0
28938,60860.0,13721.0
1275,43433.0,28118.0
69861,81668.0,16301.0
79409,30123.0,44625.0
18292,58040.0,66772.0
31372,51964.0,60577.0
54436,32703.0,84441.0
59244,85036.0,40408.0
4252,64963.0,61278.0
33244,10678.0,82002.0
59716,12634.0,11576.0
25868,46050.0,23151.0
46581,21805.0,20925.0
52947,78981.0,50825.0
33955,16039.0,56935.0
9546,8934.0,18924.0
22256,22433.0,67651.0
6988,30756.0,58284.0
2032,19375.0,56818.0
14622,51064.0,86049.0
43649,10772.0,76381.0
60704,67315.0,3802.0
47725,62369.0,14504.0
29358,78661.0,34040.0
47399,54355.0,55014.0
64401,11915.0,45120.0
4497,48614.0,62972.0
10900,4719.0,38089.0
50783,30430.0,78892.0
32112,38998.0,83093.0
53189,85077.0,58644.0
8766,4103.0,17649.0
42702,38917.0,9393.0
45035,52609.0,820.0
81444,15937.0,49717.0
34735,12786.0,80104.0
61898,82554.0,61927.0
50595,36709.0,48884.0
75558,12000.0,34903.0
17895,14603.0,44509.0
44709,63725.0,19912.0
56155,38504.0,34340.0
44699,28599.0,17030.0
54608,72111.0,76461.0
80004,23921.0,20283.0
57406,77593.0,25969.0
16743,46001.0,63525.0
5405,7294.0,31205.0
69133,45581.0,80035.0
74077,51160.0,9467.0
80505,27363.0,28292.0
20123,47784.0,16598.0
38404,31927.0,26213.0
46820,42208.0,35795.0
75012,30864.0,12106.0
85990,16310.0,33056.0
5865,26650.0,54166.0
49166,46512.0,25023.0
61544,15985.0,49256.0
54983,16397.0,25952.0
17765,44824.0,66011.0
14936,4232.0,29308.0
4577,3071.0,62203.0
46409,61676.0,25571.0
8029,1030.0,3269.0
83875,48313.0,20458.0
36313,82499.0,7499.0
76317,66027.0,67550.0
68227,34034.0,21189.0
42046,23850.0,1727.0
25219,84793.0,3129.0
51443,32931.0,82102.0
59828,31410.0,8579.0
85838,82685.0,24348.0
18810,43793.0,32365.0
35664,69792.0,1477.0
1314,82981.0,13812.0
7177,65741.0,83793.0
23690,54265.0,53339.0
26735,72473.0,38580.0
62676,39315.0,44753.0
23505,27996.0,3493.0
84337,81700.0,15655.0
48831,47817.0,17047.0
46626,30007.0,57420.0
49439,61153.0,51519.0
3541,31030.0,10947.0
46288,15054.0,73127.0
77418,77413.0,60214.0
46222,52959.0,76902.0
57569,22793.0,752.0
50953,6990.0,41044.0
5938,57511.0,84855.0
63452,20632.0,16557.0
562,14136.0,58475.0
79234,9313.0,70019.0
40758,28052.0,20076.0
25181,67153.0,4336.0
48914,9292.0,75293.0
62811,48748.0,16370.0
63484,23796.0,63999.0
68170,1734.0,59625.0
64495,6835.0,20451.0
5382,35675.0,10016.0
14956,74260.0,79001.0
28910,46043.0,6781.0
40852,82219.0,57037.0
14808,63188.0,11821.0
57667,83232.0,75175.0
65400,17394.0,82249.0
64996,15118.0,8818.0
38401,46867.0,15927.0
42812,82003.0,43149.0
38517,7886.0,69505.0
28784,63754.0,56426.0
60486,15323.0,37461.0
40171,77278.0,12071.0
50532,73085.0,43245.0
82670,74735.0,277.0
4618,36120.0,35051.0
57591,50829.0,81848.0
43365,76128.0,39283.0
70993,53872.0,68440.0
19647,10959.0,45751.0
41422,69558.0,34876.0
48118,25417.0,77749.0
40648,3844.0,18818.0
48494,84202.0,63276.0
11013,54075.0,9331.0
73448,24088.0,38047.0
83298,51114.0,65904.0
23858,11250.0,39418.0
55170,77536.0,15894.0
17691,33232.0,79955.0
65265,49878.0,50299.0
26647,3958.0,71971.0
41645,7217.0,52370.0
70181,20210.0,60450.0
63581,11896.0,18791.0
66239,9887.0,71012.0
75995,65899.0,40572.0
38868,45230.0,44524.0
84069,60488.0,3401.0
13649,81037.0,60881.0
14302,83170.0,65393.0
71141,44330.0,47282.0
18619,55634.0,58498.0
1099,29353.0,69037.0
7097,55199.0,73070.0
57098,64916.0,80323.0
31638,20282.0,65758.0
79016,39540.0,6382.0
76009,4468.0,74298.0
73478,22494.0,40904.0
73776,23945.0,81036.0
73267,26694.0,12580.0
37960,16137.0,34088.0
52112,56097.0,22383.0
51067,65099.0,49307.0
22648,26717.0,836.0
84294,2623.0,26456.0
34444,30566.0,68621.0
26780,18592.0,1169.0
15786,20138.0,39810.0
60867,7255.0,55269.0
18497,11705.0,55405.0
74655,2403.0,24602.0
38704,20364.0,3350.0
48502,52009.0,42785.0
38408,63438.0,54670.0
83543,52786.0,26186.0
15607,51130.0,80267.0
58494,40493.0,33394.0
359,74322.0,55973.0
59387,64838.0,13644.0
57243,75384.0,47166.0
31729,34921.0,78974.0
59435,63309.0,69825.0
20697,74066.0,7359.0
46061,51706.0,34039.0
892,25721.0,38500.0
66806,22101.0,4503.0
59825,43608.0,63033.0
12789,35073.0,50253.0
51511,17479.0,57551.0
26895,44581.0,86409.0
54563,66326.0,24068.0
1146,52476.0,52295.0
47504,43778.0,55403.0
24185,32962.0,72986.0
76660,84067.0,72265.0
24567,39693.0,19474.0
9163,75482.0,50891.0
62600,23122.0,31581.0
7026,2195.0,456.0
11860,33703.0,27665.0
80788,32982.0,55196.0
84012,3242.0,57224.0
2865,78372.0,38791.0
53399,48620.0,75176.0
65159,4525.0,60245.0
31047,80819.0,9406.0
50361,57236.0,55272.0
60622,18886.0,79106.0
43627,35845.0,50520.0
32342,64449.0,9255.0
58303,25138.0,71655.0
86564,45244.0,21369.0
35663,2504.0,16638.0
3538,74522.0,8546.0
48499,85708.0,40206.0
23875,62410.0,75352.0
20488,26229.0,1764.0
13439,17382.0,66137.0
86172,76644.0,25506.0
86474,66734.0,71140.0
47706,49936.0,19040.0
59947,6752.0,28169.0
32462,5799.0,57814.0
79993,48892.0,82317.0
58839,13080.0,16822.0
6132,45863.0,16527.0
43233,43845.0,83853.0
79062,73488.0,1897.0
8582,19313.0,85523.0
67953,26338.0,38932.0
30705,63402.0,34859.0
53237,70813.0,23755.0
25858,51063.0,18783.0
60809,4784.0,3707.0
67185,70161.0,35250.0
18779,8160.0,64069.0
27652,23623.0,60172.0
32796,38621.0,37254.0
79348,85043.0,69612.0
52977,58575.0,30872.0
30649,16227.0,68516.0
23799,38026.0,47505.0
52892,27171.0,33596.0
84102,454.0,62036.0
29881,37288.0,55019.0
23909,18496.0,64624.0
586,18144.0,40822.0
63748,73014.0,9405.0
13709,41443.0,32424.0
18399,57524.0,61499.0
39027,53195.0,85366.0
41896,31144.0,45582.0
65314,67239.0,7259.0
56283,57463.0,23601.0
72770,58058.0,21679.0
52681,46446.0,3564.0
2982,66206.0,59506.0
13630,52341.0,74725.0
31997,27498.0,41977.0
70511,62304.0,75810.0
24421,69565.0,35152.0
57279,50813.0,43514.0
40316,56139.0,53225.0
83121,18709.0,64149.0
56729,28779.0,4569.0
38156,66173.0,20097.0
47446,7696.0,17775.0
84058,5281.0,1097.0
68761,21421.0,29314.0
82313,8703.0,14804.0
72505,15196.0,51094.0
56567,56685.0,66990.0
58064,7876.0,17210.0
16356,83838.0,74429.0
55253,7654.0,32943.0
6152,29786.0,52704.0
19927,45138.0,74682.0
18265,8248.0,79686.0
14034,48410.0,7158.0
28105,80574.0,967.0
50186,74582.0,70377.0
14930,42881.0,12528.0
31669,83244.0,20643.0
41327,68043.0,39774.0
13618,85710.0,473.0
32163,43435.0,56121.0
41746,42246.0,49575.0
67777,43293.0,62523.0
51323,21111.0,10852.0
46406,60125.0,22251.0
75064,85495.0,69500.0
14145,1852.0,63856.0
12447,21423.0,2182.0
82967,6431.0,52472.0
66489,80010.0,31249.0
9561,56367.0,69090.0
72602,7285.0,47745.0
39179,71490.0,45392.0
1575,48097.0,9594.0
2254,25994.0,16160.0
62207,68544.0,49785.0
28947,53012.0,20330.0
35727,55552.0,38016.0
72224,39149.0,13073.0
82349,48025.0,35066.0
57863,8441.0,53261.0
82900,22403.0,43265.0
61885,24025.0,49331.0
74664,53598.0,33894.0
1281,32677.0,72263.0
80596,41771.0,8829.0
65165,29273.0,13205.0
37647,73645.0,81242.0
35924,54346.0,48247.0
29058,15557.0,6245.0
69877,32346.0,68169.0
68151,23243.0,33408.0
13270,76555.0,58720.0
23286,18324.0,22770.0
10297,26488.0,38344.0
1501,84790.0,68076.0
39287,63584.0,86453.0
27505,62503.0,77526.0
272,773.0,4058.0
25164,54947.0,54889.0
68228,12176.0,11375.0
54494,73915.0,27380.0
74493,54139.0,68768.0
71370,79880.0,32053.0
38905,12302.0,50461.0
12388,26147.0,18295.0
78684,59362.0,84282.0
37013,52471.0,68246.0
41626,28053.0,8270.0
53174,4836.0,7780.0
25348,56720.0,6559.0
74452,6879.0,18684.0
84048,27711.0,83885.0
70104,78163.0,53395.0
23979,25128.0,21356.0
75792,69186.0,35434.0
6288,68869.0,7718.0
51776,35121.0,86229.0
13082,22599.0,58519.0
34522,4772.0,20818.0
6234,56419.0,40611.0
64073,26945.0,21099.0
60057,37856.0,30768.0
57064,7215.0,50928.0
24174,70983.0,72681.0
55205,6948.0,44302.0
65447,16408.0,81645.0
7105,6062.0,41066.0
32220,182.0,59093.0
73146,58371.0,42224.0
15387,56646.0,36889.0
7632,30260.0,42977.0
13492,9174.0,77672.0
61595,52005.0,33801.0
12285,36193.0,3022.0
33140,8073.0,32218.0
47264,34417.0,86144.0
4542,71640.0,60247.0
77957,70666.0,8082.0
19312,77436.0,29261.0
66559,53322.0,80453.0
83895,14902.0,71391.0
47488,7972.0,15001.0
22858,82482.0,410.0
417,19972.0,60677.0
85246,41707.0,12539.0
79543,53170.0,71954.0
51619,33847.0,61528.0
78556,42053.0,45556.0
54047,32884.0,2404.0
72389,64407.0,35328.0
51282,44958.0,17123.0
22020,2240.0,44748.0
34275,33082.0,21336.0
42289,55666.0,2197.0
7237,12750.0,81795.0
79456,56102.0,81513.0
75975,38952.0,72310.0
61226,37778.0,68922.0
21102,43075.0,65203.0
84868,19002.0,38963.0
38632,59249.0,61000.0
9149,54950.0,63466.0
4267,22920.0,83399.0
32260,2968.0,79934.0
16244,30855.0,48806.0
77756,35498.0,35736.0
23742,21567.0,63809.0
46601,7981.0,3077.0
10009,28710.0,39885.0
12788,73585.0,11115.0
19701,37646.0,11792.0
11413,38112.0,12160.0
22919,71945.0,2867.0
14019,44038.0,21560.0
68697,25139.0,41902.0
83162,65388.0,69839.0
27910,24545.0,68870.0
21108,75658.0,65448.0
62337,48156.0,14296.0
14572,46194.0,53440.0
59878,24159.0,15681.0
3798,85717.0,49992.0
27297,69737.0,53135.0
35660,11757.0,17179.0
84450,51077.0,61973.0
50306,29125.0,13290.0
27239,45956.0,22661.0
34410,7727.0,24345.0
3131,17291.0,80711.0
78433,17403.0,58794.0
16358,19285.0,2350.0
24621,49663.0,27699.0
76558,81779.0,40782.0
23372,25845.0,62755.0
29743,16327.0,19070.0
24682,75458.0,82605.0
3914,45498.0,42780.0
25288,54466.0,52063.0
15019,29325.0,44196.0
80787,61218.0,38778.0
56708,6975.0,75473.0
55555,46416.0,28852.0
24674,52549.0,74926.0
48448,24149.0,21519.0
52467,79713.0,85544.0
20887,59527.0,10062.0
14871,68223.0,48218.0
36127,57807.0,63300.0
33225,81076.0,28291.0
63380,23073.0,19543.0
70201,4660.0,9724.0
85296,82225.0,80419.0
30890,37243.0,15214.0
52529,41464.0,29662.0
62675,65894.0,76024.0
40161,46787.0,37933.0
19016,1536.0,42825.0
26815,14204.0,26054.0
8440,58932.0,5986.0
67026,76171.0,82184.0
57093,979.0,53436.0
19556,34666.0,68751.0
32273,85573.0,3886.0
83030,63701.0,58693.0
29129,10741.0,14321.0
77891,25529.0,14721.0
80474,33285.0,32142.0
18563,48032.0,57182.0
5222,49155.0,58011.0
70470,8334.0,25064.0
38471,3711.0,35033.0
32306,30345.0,64822.0
16368,71789.0,7000.0
63491,17712.0,1518.0
78198,74690.0,21611.0
62938,77824.0,25244.0
68471,40714.0,4684.0
51682,44570.0,5896.0
5292,67257.0,52193.0
40637,70473.0,27801.0
9999,5859.0,81984.0
11893,8750.0,1392.0
53917,85638.0,73775.0
48191,18380.0,2913.0
70609,74396.0,67887.0
49859,7441.0,24617.0
63016,16361.0,53889.0
78524,30420.0,83337.0
52171,64522.0,37559.0
42641,5218.0,27989.0
62033,39990.0,66893.0
60097,50995.0,57975.0
28950,70978.0,17578.0
57105,12387.0,68796.0
37600,24183.0,67510.0
42613,60094.0,27975.0
12527,28256.0,25478.0
32965,48107.0,3999.0
63958,66390.0,70417.0
41195,61178.0,58885.0
17491,49061.0,23859.0
61532,19660.0,52735.0
78096,71925.0,55946.0
17956,57424.0,35681.0
81129,77771.0,11288.0
22868,26380.0,3054.0
42627,46120.0,5882.0
1543,12293.0,77568.0
52080,3180.0,47472.0
66571,62897.0,63258.0
78957,27840.0,69398.0
25862,9988.0,62602.0
67166,32878.0,61733.0
54294,40490.0,85473.0
32396,70166.0,76667.0
9925,30853.0,68436.0
21437,60421.0,37266.0
36134,48072.0,9803.0
14159,54326.0,57834.0
17477,50395.0,16446.0
11548,73109.0,74503.0
12430,51856.0,49825.0
55198,11749.0,21641.0
42824,78361.0,61446.0
54085,79487.0,1697.0
72685,44037.0,72691.0
31718,24639.0,353.0
4796,35291.0,13722.0
72837,18967.0,66621.0
54543,51021.0,24096.0
33113,60222.0,8247.0
362,44596.0,68728.0
23380,42352.0,19145.0
8677,38964.0,56988.0
9562,73617.0,23688.0
13788,49491.0,11098.0
41925,42158.0,24612.0
42822,60406.0,58500.0
72531,86156.0,11418.0
59256,37496.0,43189.0
23455,5598.0,24301.0
19511,30637.0,6593.0
56163,85559.0,69975.0
6396,50465.0,68414.0
23657,6359.0,5662.0
45826,46184.0,45072.0
45233,5707.0,5173.0
45425,55066.0,33316.0
9019,37027.0,14600.0
85790,72414.0,15752.0
77354,36121.0,33129.0
18654,84245.0,71464.0
29563,70226.0,48508.0
85450,73325.0,9945.0
23126,39750.0,47649.0
15374,32861.0,70191.0
64460,63097.0,12222.0
19291,4394.0,43983.0
24332,67912.0,127.0
74013,50260.0,75182.0
51671,36197.0,36917.0
54511,74371.0,27408.0
68033,60150.0,50220.0
43599,36985.0,61232.0
81671,55266.0,65788.0
8326,3085.0,39670.0
77492,21847.0,46743.0
15012,21174.0,6896.0
43584,38774.0,48304.0
21139,27286.0,3395.0
9878,5512.0,27504.0
48257,37041.0,37954.0
8098,28505.0,43494.0
82083,38001.0,4513.0
19461,31685.0,8341.0
9792,62935.0,12840.0
85788,81325.0,76285.0
70033,85391.0,83817.0
79874,78700.0,61880.0
36340,38393.0,4913.0
67610,62201.0,64698.0
20992,67482.0,47094.0
74706,64203.0,72112.0
35360,67284.0,1165.0
30952,25635.0,36825.0
5214,25043.0,46866.0
86139,6528.0,30769.0
72345,31439.0,29326.0
57945,74243.0,36938.0
2357,18102.0,18397.0
17732,78849.0,32434.0
76737,55694.0,37316.0
13525,21242.0,13424.0
64937,32114.0,9434.0
54108,772.0,33194.0
32501,78408.0,46425.0
5581,69312.0,3753.0
29700,9667.0,40006.0
51961,71516.0,7909.0
86313,10215.0,18985.0
26473,84638.0,85074.0
70848,41075.0,82819.0
59493,15026.0,28438.0
60224,2791.0,33966.0
50403,70704.0,48947.0
40054,60452.0,83058.0
40114,44426.0,15269.0
76560,46168.0,56926.0
45251,39397.0,52364.0
84252,69096.0,47158.0
40601,8754.0,12223.0
475,51145.0,80583.0
68598,28851.0,30391.0
27585,27024.0,69316.0
75664,12852.0,47530.0
39620,62198.0,35826.0
73650,59952.0,35792.0
44272,24171.0,65332.0
79926,34981.0,43344.0
41919,32562.0,55683.0
66916,86492.0,44083.0
3540,36953.0,17170.0
18177,81559.0,32725.0
26995,81473.0,23448.0
56018,77232.0,18087.0
43712,78345.0,27998.0
82609,77479.0,26458.0
85660,6837.0,22001.0
68499,32999.0,40282.0
25038,58312.0,2647.0
70302,59343.0,83640.0
74152,81686.0,3425.0
76747,17960.0,37108.0
15470,83256.0,6016.0
68957,42349.0,58088.0
18765,194.0,41856.0
41481,75101.0,21846.0
2288,34351.0,57750.0
51830,61754.0,41788.0
3446,83231.0,4871.0
50576,10636.0,50052.0
12844,14564.0,31429.0
28421,47379.0,43973.0
32870,72133.0,76151.0
